2.31449981755668e-23
2.43313634637049e-23
2.55778999555799e-23
2.68876264001325e-23
2.82637113016775e-23
2.97094802632279e-23
3.12284236856086e-23
3.28242048393731e-23
3.45006683273526e-23
3.62618489565158e-23
3.81119810386791e-23
4.00555081405493e-23
4.20970933045285e-23
4.42416297627336e-23
4.64942521677341e-23
4.8860348364609e-23
5.1345571730104e-23
5.39558541058483e-23
5.66974193538806e-23
5.95767975640652e-23
6.26008399443244e-23
6.57767344261249e-23
6.91120220191159e-23
7.26146139504388e-23
7.62928096258968e-23
8.01553154518545e-23
8.42112645586515e-23
8.84702374681053e-23
9.29422837497535e-23
9.76379447125449e-23
1.02568277180815e-22
1.07744878405755e-22
1.13179912165861e-22
1.18886136112412e-22
1.24876930418621e-22
1.31166327793779e-22
1.3776904492663e-22
1.44700515425149e-22
1.51976924323009e-22
1.5961524422633e-22
1.67633273177652e-22
1.7604967431765e-22
1.84884017428899e-22
1.94156822449779e-22
2.03889605050796e-22
2.14104924369768e-22
2.24826433006836e-22
2.36078929384897e-22
2.4788841258589e-22
2.60282139778539e-22
2.7328868635837e-22
2.86938008926448e-22
3.01261511239134e-22
3.16292113267076e-22
3.3206432350824e-22
3.48614314706177e-22
3.65980003131857e-22
3.8420113159459e-22
4.03319356355026e-22
4.23378338121417e-22
4.44423837318281e-22
4.66503813825507e-22
4.89668531394942e-22
5.13970666960771e-22
5.39465425070227e-22
5.6621065767113e-22
5.94266989503726e-22
6.23697949355691e-22
6.54570107450512e-22
6.86953219252425e-22
7.20920375983236e-22
7.56548162160274e-22
7.93916820478691e-22
8.33110424375707e-22
8.7421705863016e-22
9.17329008366274e-22
9.6254295684756e-22
1.00996019246442e-21
1.05968682533644e-21
1.11183401397071e-21
1.16651820243609e-21
1.22386136853507e-21
1.28399128347631e-21
1.34704178357326e-21
1.41315305451884e-21
1.48247192880971e-21
1.55515219692061e-21
1.63135493285577e-21
1.71124883473214e-21
1.79501058107982e-21
1.88282520357429e-21
1.97488647694829e-21
2.07139732686462e-21
2.17257025656517e-21
2.27862779314916e-21
2.3898029543714e-21
2.50633973689055e-21
2.62849362694003e-21
2.75653213443687e-21
2.89073535158912e-21
3.03139653711083e-21
3.17882272720104e-21
3.33333537449703e-21
3.49527101626418e-21
3.66498197314167e-21
3.84283707982271e-21
4.02922244910682e-21
4.22454227082924e-21
4.42921964723532e-21
4.64369746644003e-21
4.86843931568534e-21
5.10393043618171e-21
5.3506787214021e-21
5.60921576077758e-21
5.88009793082976e-21
6.16390753586711e-21
6.46125400046321e-21
6.77277511603577e-21
7.09913834394546e-21
7.44104217764024e-21
7.79921756648507e-21
8.1744294040275e-21
8.56747808357683e-21
8.97920112409639e-21
9.41047486954158e-21
9.86221626491609e-21
1.03353847124577e-20
1.08309840115199e-20
1.13500643858663e-20
1.18937246022625e-20
1.24631141844182e-20
1.30594357265056e-20
1.36839473106736e-20
1.43379650331618e-20
1.50228656438211e-20
1.57400893040649e-20
1.64911424684791e-20
1.72776008955637e-20
1.81011127933019e-20
1.89634021055114e-20
1.98662719451853e-20
2.0811608181301e-20
2.18013831858591e-20
2.28376597482031e-20
2.392259516398e-20
2.50584455064215e-20
2.62475700879503e-20
2.74924361204781e-20
2.87956235831009e-20
3.01598303062963e-20
3.15878772821074e-20
3.30827142102051e-20
3.46474252901628e-20
3.62852352706987e-20
3.79995157671277e-20
3.97937918587363e-20
4.16717489782948e-20
4.36372401064587e-20
4.56942932843424e-20
4.78471194581338e-20
5.01001206702065e-20
5.24578986117968e-20
5.49252635529825e-20
5.75072436663434e-20
6.02090947614073e-20
6.30363104477094e-20
6.59946327450473e-20
6.90900631603214e-20
7.23288742511644e-20
7.57176216974223e-20
7.92631569024788e-20
8.29726401472948e-20
8.68535543210635e-20
9.09137192533696e-20
9.51613066737796e-20
9.96048558259634e-20
1.04253289764484e-19
1.09115932363714e-19
1.14202526069466e-19
1.19523250425302e-19
1.25088741406819e-19
1.30910111598579e-19
1.36998971249865e-19
1.43367450246965e-19
1.50028221041215e-19
1.56994522573821e-19
1.64280185240015e-19
1.71899656937116e-19
1.79868030242723e-19
1.88201070771384e-19
1.96915246760044e-19
2.06027759934624e-19
2.15556577712445e-19
2.25520466797342e-19
2.35939028226761e-19
2.46832733932664e-19
2.58222964880546e-19
2.7013205085366e-19
2.82583311952297e-19
2.95601101880857e-19
3.09210853098596e-19
3.23439123912959e-19
3.38313647597757e-19
3.53863383621962e-19
3.70118571078265e-19
3.87110784404448e-19
4.04872991494352e-19
4.23439614299318e-19
4.4284659202519e-19
4.63131447034102e-19
4.84333353565237e-19
5.06493209392996e-19
5.29653710546177e-19
5.5385942921696e-19
5.79156894993519e-19
6.05594679555833e-19
6.33223484980095e-19
6.62096235802746e-19
6.92268175001904e-19
7.23796964060002e-19
7.56742787278368e-19
7.91168460521711e-19
8.27139544577288e-19
8.64724463321661e-19
9.03994626895522e-19
9.45024560095304e-19
9.87892036199182e-19
1.03267821645338e-18
1.07946779545462e-18
1.12834915267373e-18
1.17941451037537e-18
1.23276009820006e-18
1.28848632468405e-18
1.3466979560057e-18
1.40750430225696e-18
1.47101941155209e-18
1.5373622722977e-18
1.60665702396158e-18
1.67903317669168e-18
1.75462584015041e-18
1.83357596194475e-18
1.91603057604799e-18
2.00214306162429e-18
2.09207341268525e-18
2.18598851902345e-18
2.28406245888722e-18
2.38647680387905e-18
2.49342093657924e-18
2.60509238141769e-18
2.72169714933642e-18
2.84345009680819e-18
2.97057529979966e-18
3.10330644328951e-18
3.24188722697895e-18
3.38657178785529e-18
3.5376251402973e-18
3.69532363443832e-18
3.85995543353099e-18
4.03182101108916e-18
4.21123366861091e-18
4.39852007472122e-18
4.59402082660544e-18
4.79809103463813e-18
5.011100931151e-18
5.23343650431805e-18
5.46550015817689e-18
5.7077113998462e-18
5.96050755503872e-18
6.22434451301719e-18
6.49969750218147e-18
6.78706189752616e-18
7.08695406125541e-18
7.39991221789193e-18
7.72649736527253e-18
8.06729422287497e-18
8.42291221897946e-18
8.79398651822892e-18
9.18117909120936e-18
9.5851798277421e-18
1.00067076956404e-17
1.04465119467554e-17
1.09053733722085e-17
1.13841056087784e-17
1.18835564984934e-17
1.24046095035563e-17
1.2948185178813e-17
1.35152427040671e-17
1.41067814786249e-17
1.4723842780558e-17
1.53675114932608e-17
1.60389179019821e-17
1.67392395631222e-17
1.74697032491824e-17
1.82315869723804e-17
1.90262220900528e-17
1.98549954950899e-17
2.07193518947825e-17
2.16207961815735e-17
2.25608958993666e-17
2.3541283809165e-17
2.45636605579703e-17
2.56297974550288e-17
2.67415393596533e-17
2.79008076850356e-17
2.91096035226138e-17
3.03700108917491e-17
3.16842001196497e-17
3.30544313566583e-17
3.44830582322347e-17
3.59725316571555e-17
3.75254037776718e-17
3.91443320875929e-17
4.08320837044775e-17
4.25915398163711e-17
4.44257003057606e-17
4.63376885576744e-17
4.83307564591416e-17
5.04082895974624e-17
5.25738126650732e-17
5.4830995079045e-17
5.71836568235891e-17
5.96357745242591e-17
6.2191487762855e-17
6.48551056424014e-17
6.76311136119087e-17
7.05241805610095e-17
7.35391661949413e-17
7.66811287007392e-17
7.995533271594e-17
8.33672576114818e-17
8.69226061009751e-17
9.06273131889559e-17
9.44875554712122e-17
9.85097608007849e-17
1.02700618333729e-16
1.07067088969293e-16
1.11616416199682e-16
1.16356137385201e-16
1.21294095471104e-16
1.26438451163147e-16
1.31797695579432e-16
1.37380663396844e-16
1.43196546511041e-16
1.49254908229642e-16
1.55565698019063e-16
1.6213926682617e-16
1.68986382996689e-16
1.76118248813234e-16
1.83546517676525e-16
1.91283311954391e-16
1.99341241523969e-16
2.07733423033499e-16
2.16473499911133e-16
2.25575663149103e-16
2.35054672892767e-16
2.44925880865045e-16
2.55205253657954e-16
2.65909396924136e-16
2.77055580502405e-16
2.88661764512763e-16
3.00746626457431e-16
3.13329589366028e-16
3.26430851024261e-16
3.40071414327017e-16
3.54273118798292e-16
3.69058673321883e-16
3.84451690128394e-16
4.00476720085945e-16
4.17159289343399e-16
4.34525937377104e-16
4.5260425649368e-16
4.71422932843497e-16
4.91011789001549e-16
5.11401828174214e-16
5.32625280092995e-16
5.54715648658045e-16
5.77707761397048e-16
6.01637820807145e-16
6.26543457650079e-16
6.52463786273527e-16
6.79439462033874e-16
7.07512740898765e-16
7.3672754131052e-16
7.6712950839419e-16
7.98766080597649e-16
8.31686558853619e-16
8.65942178357254e-16
9.0158618305627e-16
9.38673902953716e-16
9.77262834327737e-16
1.0174127229759e-15
1.05918565059577e-15
1.10264612441758e-15
1.14786117020872e-15
1.19490042877442e-15
1.24383625608314e-15
1.29474382715002e-15
1.34770124381665e-15
1.40278964656999e-15
1.46009333054885e-15
1.5196998658913e-15
1.58170022258203e-15
1.64618889996465e-15
1.71326406108901e-15
1.78302767207088e-15
1.85558564664649e-15
1.93104799611167e-15
2.00952898484213e-15
2.09114729159765e-15
2.17602617682141e-15
2.26429365615185e-15
2.35608268037321e-15
2.45153132203853e-15
2.55078296900707e-15
2.65398652514692e-15
2.76129661846242e-15
2.87287381691478e-15
2.98888485221491e-15
3.10950285187546e-15
3.23490757982143e-15
3.36528568586736e-15
3.50083096438078e-15
3.64174462246365e-15
3.78823555799287e-15
3.94052064787618e-15
4.098825046889e-15
4.26338249747276e-15
4.43443565088853e-15
4.61223640013148e-15
4.79704622502931e-15
4.98913654995898e-15
5.18878911463375e-15
5.39629635842799e-15
5.61196181872165e-15
5.83610054376616e-15
6.06903952058807e-15
6.31111811846602e-15
6.56268854853668e-15
6.82411634010049e-15
7.09578083422333e-15
7.37807569524573e-15
7.67140944083577e-15
7.97620599124321e-15
8.29290523843339e-15
8.62196363580572e-15
8.9638548092233e-15
9.31907019010636e-15
9.68811967136971e-15
1.00715322870072e-14
1.04698569161583e-14
1.08836630125189e-14
1.13135413599841e-14
1.17601048554512e-14
1.222398931973e-14
1.27058543375515e-14
1.32063841276925e-14
1.37262884442714e-14
1.42663035103064e-14
1.48271929846647e-14
1.54097489635685e-14
1.60147930178637e-14
1.66431772673013e-14
1.72957854931167e-14
1.79735342902465e-14
1.86773742605566e-14
1.94082912485099e-14
2.01673076207472e-14
2.09554835911048e-14
2.17739185926447e-14
2.26237526983269e-14
2.35061680920052e-14
2.44223905914902e-14
2.53736912254744e-14
2.63613878661856e-14
2.73868469196831e-14
2.84514850757919e-14
2.95567711197207e-14
3.07042278074918e-14
3.1895433807377e-14
3.31320257095995e-14
3.44157001066569e-14
3.5748215746675e-14
3.71313957623005e-14
3.85671299777226e-14
4.00573772964824e-14
4.16041681728483e-14
4.3209607169597e-14
4.48758756051511e-14
4.66052342931272e-14
4.84000263774265e-14
5.02626802661359e-14
5.21957126675834e-14
5.42017317320268e-14
5.62834403025626e-14
5.84436392789449e-14
6.06852310981601e-14
6.30112233356907e-14
6.5424732431557e-14
6.79289875453618e-14
7.05273345446727e-14
7.32232401312634e-14
7.60202961098408e-14
7.89222238040638e-14
8.19328786248138e-14
8.50562547958204e-14
8.82964902419444e-14
9.16578716455614e-14
9.51448396766828e-14
9.87619944026498e-14
1.02514100883381e-13
1.06406094958407e-13
1.10443089232081e-13
1.14630379263574e-13
1.18973449968512e-13
1.23477982239268e-13
1.28149859791227e-13
1.32995176242494e-13
1.38020242434846e-13
1.43231594003913e-13
1.48635999206846e-13
1.54240467016037e-13
1.60052255487663e-13
1.66078880414162e-13
1.72328124270039e-13
1.78808045460653e-13
1.85526987884011e-13
1.92493590815878e-13
1.99716799128824e-13
2.07205873856251e-13
2.1497040311267e-13
2.23020313381985e-13
2.31365881185839e-13
2.40017745144452e-13
2.48986918442867e-13
2.58284801715801e-13
2.67923196364852e-13
2.77914318322129e-13
2.88270812274889e-13
2.99005766366257e-13
3.10132727387431e-13
3.21665716477511e-13
3.33619245347304e-13
3.46008333044236e-13
3.58848523275904e-13
3.7215590231033e-13
3.85947117471683e-13
4.00239396250681e-13
4.15050566049538e-13
4.3039907458204e-13
4.46304010949761e-13
4.62785127416364e-13
4.79862861902366e-13
4.97558361223572e-13
5.15893505097193e-13
5.34890930940127e-13
5.54574059485014e-13
5.74967121240162e-13
5.96095183820392e-13
6.17984180176782e-13
6.40660937753865e-13
6.64153208604119e-13
6.88489700490125e-13
7.13700109005959e-13
7.39815150750335e-13
7.66866597584862e-13
7.94887312012009e-13
8.23911283708304e-13
8.53973667249395e-13
8.85110821064875e-13
9.1736034766166e-13
9.50761135156243e-13
9.85353400157057e-13
1.02117873203961e-12
1.05828013865851e-12
1.09670209354136e-12
1.13649058461155e-12
1.1776931644878e-12
1.22035900241004e-12
1.26453893784293e-12
1.31028553580923e-12
1.35765314400783e-12
1.40669795177166e-12
1.45747805092354e-12
1.51005349858915e-12
1.56448638202806e-12
1.62084088554604e-12
1.6791833595533e-12
1.73958239183549e-12
1.80210888110655e-12
1.86683611291379e-12
1.93383983796886e-12
2.00319835297927e-12
2.07499258405828e-12
2.14930617279281e-12
2.22622556505169e-12
2.30584010261881e-12
2.3882421177383e-12
2.47352703066164e-12
2.56179345028906e-12
2.65314327800058e-12
2.74768181477465e-12
2.84551787169523e-12
2.94676388395154e-12
3.05153602843719e-12
3.15995434505946e-12
3.2721428618713e-12
3.38822972414402e-12
3.5083473274999e-12
3.63263245522916e-12
3.76122641991881e-12
3.89427520952406e-12
4.03192963801818e-12
4.17434550075911e-12
4.32168373471635e-12
4.47411058370578e-12
4.63179776878313e-12
4.79492266395333e-12
4.96366847735551e-12
5.13822443808924e-12
5.31878598885278e-12
5.50555498456715e-12
5.6987398971677e-12
5.89855602674776e-12
6.10522571924474e-12
6.31897859086704e-12
6.54005175946094e-12
6.76869008302818e-12
7.00514640560601e-12
7.24968181073118e-12
7.50256588271333e-12
7.76407697595159e-12
8.03450249253351e-12
8.31413916836285e-12
8.60329336806973e-12
8.90228138896516e-12
9.21142977430669e-12
9.53107563615221e-12
9.86156698808578e-12
1.02032630881069e-11
1.05565347919849e-11
1.09217649173855e-11
1.12993486190897e-11
1.16896937756289e-11
1.20932213876744e-11
1.25103659885265e-11
1.29415760670579e-11
1.33873145034771e-11
1.38480590182876e-11
1.43243026348286e-11
1.4816554155797e-11
1.5325338654154e-11
1.58511979788426e-11
1.63946912757419e-11
1.69563955243056e-11
1.75369060903408e-11
1.81368372953926e-11
1.87568230032228e-11
1.93975172238721e-11
2.00595947358187e-11
2.07437517267578e-11
2.14507064535357e-11
2.21811999217985e-11
2.29359965859167e-11
2.37158850697756e-11
2.45216789090298e-11
2.53542173154384e-11
2.62143659639168e-11
2.71030178029558e-11
2.8021093889077e-11
2.89695442460154e-11
2.99493487493322e-11
3.09615180371896e-11
3.20070944480281e-11
3.30871529859178e-11
3.42028023143717e-11
3.53551857794255e-11
3.6545482462823e-11
3.7774908266155e-11
3.90447170268318e-11
4.03562016667938e-11
4.17106953748791e-11
4.31095728238077e-11
4.45542514227527e-11
4.60461926065053e-11
4.7586903162262e-11
4.91779365950968e-11
5.08208945332003e-11
5.25174281740044e-11
5.42692397723407e-11
5.60780841718047e-11
5.79457703805411e-11
5.98741631926905e-11
6.18651848567632e-11
6.39208167922649e-11
6.60431013558985e-11
6.82341436587426e-11
7.04961134358054e-11
7.28312469694199e-11
7.52418490679637e-11
7.77302951014429e-11
8.02990330955134e-11
8.29505858855504e-11
8.56875533324233e-11
8.85126146016835e-11
9.14285305079e-11
9.44381459259528e-11
9.75443922711062e-11
1.0075029004976e-10
1.0405895148281e-10
1.07473583203613e-10
1.10997489032591e-10
1.14634072830576e-10
1.18386841433032e-10
1.22259407667369e-10
1.26255493455604e-10
1.30378933004703e-10
1.34633676086971e-10
1.3902379141294e-10
1.43553470099258e-10
1.48227029234155e-10
1.53048915543126e-10
1.58023709157531e-10
1.63156127488894e-10
1.68451029211739e-10
1.73913418357896e-10
1.79548448525274e-10
1.85361427204153e-10
1.91357820224183e-10
1.97543256325283e-10
2.03923531855775e-10
2.1050461560117e-10
2.17292653747057e-10
2.24293974979694e-10
2.31515095727964e-10
2.38962725550436e-10
2.46643772671429e-10
2.54565349669991e-10
2.62734779325854e-10
2.71159600626543e-10
2.79847574939854e-10
2.88806692356126e-10
2.98045178204738e-10
3.07571499749433e-10
3.17394373067192e-10
3.27522770115441e-10
3.37965925992585e-10
3.48733346396903e-10
3.59834815288989e-10
3.71280402763105e-10
3.83080473132839e-10
3.9524569323673e-10
4.07787040969536e-10
4.2071581404504e-10
4.34043638996393e-10
4.47782480420195e-10
4.619446504706e-10
4.76542818609935e-10
4.91590021622451e-10
5.07099673898031e-10
5.23085577992787e-10
5.39561935473702e-10
5.56543358054625e-10
5.74044879031077e-10
5.920819650216e-10
6.10670528023436e-10
6.29826937790625e-10
6.49568034542791e-10
6.69911142012972e-10
6.90874080843261e-10
7.12475182337011e-10
7.34733302576752e-10
7.57667836917091e-10
7.81298734862058e-10
8.05646515336745e-10
8.30732282363122e-10
8.56577741150321e-10
8.83205214609803e-10
9.10637660306122e-10
9.38898687854323e-10
9.68012576775117e-10
9.98004294819396e-10
1.02889951677382e-09
1.06072464375958e-09
1.09350682303661e-09
1.12727396832594e-09
1.16205478066312e-09
1.19787876979586e-09
1.23477627613954e-09
1.27277849330448e-09
1.31191749120895e-09
1.35222623979278e-09
1.39373863334614e-09
1.4364895154688e-09
1.4805147046756e-09
1.52585102066376e-09
1.57253631125868e-09
1.62060948005452e-09
1.67011051476707e-09
1.72108051631602e-09
1.7735617286547e-09
1.82759756936551e-09
1.88323266103973e-09
1.94051286346091e-09
1.99948530661143e-09
2.06019842452211e-09
2.12270198998561e-09
2.1870471501543e-09
2.25328646304434e-09
2.3214739349676e-09
2.39166505891412e-09
2.4639168539078e-09
2.53828790535902e-09
2.614838406438e-09
2.69363020049355e-09
2.77472682454228e-09
2.85819355385382e-09
2.94409744765855e-09
3.03250739600435e-09
3.12349416779009e-09
3.21713046000371e-09
3.31349094819364e-09
3.41265233820294e-09
3.51469341919606e-09
3.61969511800881e-09
3.72774055485313e-09
3.83891510040826e-09
3.95330643433148e-09
4.07100460522153e-09
4.19210209206916e-09
4.3166938672297e-09
4.4448774609532e-09
4.57675302750892e-09
4.71242341294131e-09
4.85199422449566e-09
4.99557390175255e-09
5.14327378951045e-09
5.29520821245778e-09
5.45149455167561e-09
5.61225332301352e-09
5.77760825738223e-09
5.947686383007e-09
6.12261810968753e-09
6.30253731511035e-09
6.48758143326094e-09
6.67789154498429e-09
6.87361247074269e-09
7.07489286562158e-09
7.28188531663465e-09
7.49474644238127e-09
7.71363699510904e-09
7.93872196523724e-09
8.17017068839693e-09
8.40815695504432e-09
8.65285912270703e-09
8.90446023092128e-09
9.16314811892276e-09
9.4291155461517e-09
9.70256031563698e-09
9.98368540032324e-09
1.02726990724074e-08
1.05698150357527e-08
1.08752525614485e-08
1.11892366265872e-08
1.15119980563285e-08
1.18437736693272e-08
1.21848064265962e-08
1.25353455838843e-08
1.2895646847644e-08
1.32659725346719e-08
1.36465917354996e-08
1.40377804816223e-08
1.4439821916645e-08
1.48530064714375e-08
1.52776320433826e-08
1.57140041798097e-08
1.61624362657045e-08
1.66232497157898e-08
1.70967741710712e-08
1.75833476999468e-08
1.80833170039796e-08
1.85970376284347e-08
1.91248741776838e-08
1.9667200535584e-08
2.0224400090938e-08
2.07968659681454e-08
2.13850012631574e-08
2.19892192848497e-08
2.260994380193e-08
2.32476092954979e-08
2.39026612173813e-08
2.45755562543695e-08
2.52667625984723e-08
2.59767602233317e-08
2.6706041166918e-08
2.74551098206448e-08
2.82244832250374e-08
2.90146913720966e-08
2.98262775144962e-08
3.06597984817615e-08
3.15158250035743e-08
3.23949420403562e-08
3.32977491212816e-08
3.42248606898786e-08
3.51769064573732e-08
3.61545317639441e-08
3.71583979480484e-08
3.81891827239897e-08
3.92475805678995e-08
4.03343031123053e-08
4.14500795494663e-08
4.25956570436558e-08
4.37718011525777e-08
4.49792962581027e-08
4.62189460065197e-08
4.7491573758495e-08
4.87980230489416e-08
5.01391580569998e-08
5.15158640863353e-08
5.29290480559695e-08
5.4379639001852e-08
5.58685885893969e-08
5.73968716372064e-08
5.89654866522048e-08
6.05754563764181e-08
6.22278283456333e-08
6.39236754601752e-08
6.56640965680491e-08
6.7450217060692e-08
6.92831894815911e-08
7.11641941480245e-08
7.3094439786186e-08
7.50751641799646e-08
7.71076348336444e-08
7.91931496488098e-08
8.13330376157308e-08
8.35286595195205e-08
8.57814086613539e-08
8.80927115950457e-08
9.04640288792923e-08
9.28968558458818e-08
9.53927233841893e-08
9.79531987422769e-08
1.00579886344916e-07
1.03274428628873e-07
1.06038506895787e-07
1.08873842182988e-07
1.11782196152588e-07
1.14765371999231e-07
1.17825215376818e-07
1.20963615344622e-07
1.24182505333125e-07
1.2748386412998e-07
1.30869716886478e-07
1.3434213614491e-07
1.3790324288723e-07
1.41555207605411e-07
1.4530025139393e-07
1.49140647064782e-07
1.53078720285454e-07
1.57116850740304e-07
1.61257473315782e-07
1.6550307930993e-07
1.69856217666634e-07
1.74319496235096e-07
1.78895583054968e-07
1.83587207667677e-07
1.88397162454373e-07
1.9332830400105e-07
1.98383554491304e-07
2.03565903127261e-07
2.08878407579195e-07
2.1432419546436e-07
2.19906465855572e-07
2.25628490820106e-07
2.31493616989436e-07
2.37505267160416e-07
2.43666941928442e-07
2.49982221353209e-07
2.56454766657635e-07
2.63088321960569e-07
2.69886716043881e-07
2.76853864154569e-07
2.83993769842509e-07
2.91310526834487e-07
2.9880832094517e-07
3.06491432025679e-07
3.14364235950429e-07
3.22431206642927e-07
3.30696918141219e-07
3.39166046703696e-07
3.47843372955952e-07
3.56733784079465e-07
3.65842276042783e-07
3.75173955876021e-07
3.84734043989381e-07
3.94527876536497e-07
4.04560907823379e-07
4.1483871276376e-07
4.25366989381631e-07
4.36151561361827e-07
4.4719838064944e-07
4.58513530098963e-07
4.70103226173973e-07
4.81973821698257e-07
4.94131808659258e-07
5.06583821064705e-07
5.193366378534e-07
5.32397185861022e-07
5.45772542841918e-07
5.59469940547843e-07
5.73496767864557e-07
5.87860574007336e-07
6.02569071776316e-07
6.17630140872741e-07
6.33051831277063e-07
6.48842366690005e-07
6.6501014803759e-07
6.81563757041208e-07
6.98511959853825e-07
7.15863710763387e-07
7.33628155964568e-07
7.51814637399983e-07
7.70432696671978e-07
7.89492079026201e-07
8.09002737408083e-07
8.28974836593452e-07
8.49418757394465e-07
8.70345100942102e-07
8.91764693046444e-07
9.13688588635991e-07
9.36128076277301e-07
9.59094682776247e-07
9.82600177862182e-07
1.00665657895636e-06
1.03127615602592e-06
1.05647143652483e-06
1.08225521042317e-06
1.10864053532607e-06
1.13564074168393e-06
1.16326943809499e-06
1.19154051670213e-06
1.22046815868504e-06
1.25006683984943e-06
1.28035133631464e-06
1.31133673030139e-06
1.34303841602103e-06
1.37547210566786e-06
1.4086538355163e-06
1.44259997212428e-06
1.47732721864457e-06
1.51285262124582e-06
1.5491935756447e-06
1.58636783375113e-06
1.62439351042804e-06
1.66328909036763e-06
1.70307343508567e-06
1.74376579003576e-06
1.78538579184522e-06
1.82795347567456e-06
1.87148928270222e-06
1.91601406773657e-06
1.96154910695689e-06
2.00811610578546e-06
2.05573720689235e-06
2.10443499833524e-06
2.15423252183592e-06
2.20515328119559e-06
2.25722125085102e-06
2.31046088457348e-06
2.36489712431255e-06
2.42055540918698e-06
2.47746168462453e-06
2.53564241165304e-06
2.59512457634485e-06
2.65593569941674e-06
2.71810384598751e-06
2.7816576354956e-06
2.84662625177879e-06
2.91303945331837e-06
2.98092758365005e-06
3.0503215819439e-06
3.12125299375567e-06
3.19375398195179e-06
3.26785733781068e-06
3.34359649230236e-06
3.42100552754923e-06
3.50011918847021e-06
3.58097289461076e-06
3.66360275216142e-06
3.74804556616724e-06
3.83433885293076e-06
3.92252085261117e-06
4.01263054202201e-06
4.1047076476304e-06
4.19879265876017e-06
4.29492684100169e-06
4.39315224983121e-06
4.49351174444215e-06
4.59604900179141e-06
4.70080853086334e-06
4.80783568715412e-06
4.91717668737962e-06
5.02887862440916e-06
5.14298948242869e-06
5.25955815233557e-06
5.37863444736857e-06
5.50026911897554e-06
5.62451387292195e-06
5.75142138564336e-06
5.88104532084472e-06
6.01344034634971e-06
6.14866215120291e-06
6.28676746302833e-06
6.42781406564715e-06
6.5718608169578e-06
6.71896766708182e-06
6.86919567677837e-06
7.02260703613093e-06
7.17926508350922e-06
7.33923432480978e-06
7.50258045297842e-06
7.66937036781782e-06
7.83967219608384e-06
8.01355531187364e-06
8.19109035730917e-06
8.37234926351964e-06
8.55740527192579e-06
8.74633295583019e-06
8.93920824231661e-06
9.13610843446192e-06
9.3371122338645e-06
9.54229976349214e-06
9.75175259085345e-06
9.96555375149609e-06
1.01837877728358e-05
1.04065406983194e-05
1.06339001119259e-05
1.08659551630088e-05
1.11027965914841e-05
1.13445167533672e-05
1.15912096466621e-05
1.18429709376077e-05
1.2099897987284e-05
1.23620898785827e-05
1.26296474435453e-05
1.29026732910729e-05
1.31812718350123e-05
1.34655493226207e-05
1.37556138634145e-05
1.40515754584044e-05
1.43535460297229e-05
1.46616394506456e-05
1.49759715760125e-05
1.52966602730522e-05
1.56238254526125e-05
1.59575891008028e-05
1.62980753110506e-05
1.66454103165779e-05
1.69997225232999e-05
1.73611425431515e-05
1.7729803227844e-05
1.81058397030578e-05
1.84893894030738e-05
1.88805921058486e-05
1.92795899685369e-05
1.96865275634652e-05
2.01015519145613e-05
2.05248125342434e-05
2.09564614607735e-05
2.13966532960779e-05
2.18455452440408e-05
2.23032971492725e-05
2.27700715363603e-05
2.32460336496012e-05
2.37313514932251e-05
2.42261958721099e-05
2.47307404329934e-05
2.52451617061865e-05
2.57696391477911e-05
2.63043551824274e-05
2.68494952464744e-05
2.74052478318282e-05
2.79718045301808e-05
2.85493600778265e-05
2.91381124009953e-05
2.97382626617224e-05
3.03500153042547e-05
3.09735781019989e-05
3.16091622050164e-05
3.2256982188067e-05
3.29172560992081e-05
3.35902055089507e-05
3.42760555599777e-05
3.49750350174295e-05
3.56873763197569e-05
3.64133156301504e-05
3.71530928885461e-05
3.79069518642129e-05
3.8675140208927e-05
3.94579095107332e-05
4.02555153483014e-05
4.10682173458795e-05
4.18962792288464e-05
4.2739968879871e-05
4.35995583956773e-05
4.44753241444225e-05
4.53675468236911e-05
4.62765115191068e-05
4.72025077635672e-05
4.81458295971057e-05
4.91067756273815e-05
5.00856490908032e-05
5.108275791429e-05
5.20984147776701e-05
5.31329371767244e-05
5.41866474868754e-05
5.52598730275259e-05
5.63529461270506e-05
5.74662041884427e-05
5.85999897556202e-05
5.97546505803929e-05
6.09305396900954e-05
6.2128015455887e-05
6.33474416617218e-05
6.45891875739915e-05
6.58536280118458e-05
6.71411434181897e-05
6.84521199313616e-05
6.97869494574962e-05
7.11460297435717e-05
7.25297644511467e-05
7.39385632307856e-05
7.53728417971796e-05
7.68330220049585e-05
7.83195319252026e-05
7.98328059226511e-05
8.13732847336125e-05
8.29414155445763e-05
8.45376520715282e-05
8.61624546399718e-05
8.78162902656566e-05
8.94996327360153e-05
9.12129626923089e-05
9.29567677124835e-05
9.47315423947401e-05
9.65377884418151e-05
9.83760147459767e-05
0.000100246737474734
0.00010215048015726
0.000104087773771536
0.000106059156832206
0.000108065175479148
0.000110106383566765
0.000112183342753993
0.000114296622595019
0.000116446800630721
0.000118634462480826
0.000120860201936775
0.000123124621055314
0.000125428330252787
0.00012777194840015
0.000130156102918701
0.000132581429876506
0.000135048574085554
0.000137558189199607
0.000140110937812756
0.000142707491558696
0.000145348531210685
0.000148034746782219
0.000150766837628399
0.000153545512547991
0.000156371489886192
0.000159245497638069
0.000162168273552705
0.000165140565238015
0.000168163130266247
0.000171236736280172
0.000174362161099929
0.000177540192830561
0.000180771629970203
0.000184057281518935
0.000187397967088305
0.000190794517011483
0.000194247772454088
0.000197758585525642
0.000201327819391666
0.000204956348386416
0.000208645058126235
0.000212394845623537
0.000216206619401403
0.000220081299608779
0.000224019818136289
0.000228023118732638
0.0002320921571216
0.000236227901119598
0.000240431330753846
0.000244703438381073
0.000249045228806793
0.000253457719405128
0.000257941940239184
0.000262498934181946
0.000267129757037713
0.000271835477664035
0.000276617178094169
0.000281475953660023
0.000286412913115593
0.000291429178760878
0.000296525886566254
0.000301704186297312
0.000306965241640144
0.000312310230327048
0.000317740344262676
0.000323256789650579
0.000328860787120151
0.000334553571853971
0.000340336393715509
0.000346210517377194
0.000352177222448841
0.00035823780360639
0.000364393570721
0.000370645848988412
0.000376995979058639
0.000383445317165913
0.000389995235258897
0.000396647121131162
0.000403402378551871
0.000410262427396704
0.000417228703778972
0.000424302660180909
0.000431485765585152
0.000438779505606347
0.000446185382622913
0.0004537049159089
0.000461339641765956
0.000469091113655376
0.000476960902330199
0.000484950595967365
0.000493061800299879
0.000501296138748976
0.000509655252556293
0.000518140800915969
0.000526754461106719
0.000535497928623807
0.000544372917310927
0.000553381159491966
0.000562524406102612
0.000571804426821815
0.000581223010203039
0.000590781963805304
0.000600483114324022
0.000610328307721524
0.000620319409357358
0.000630458304118247
0.000640746896547707
0.000651187110975352
0.000661780891645767
0.00067253020284701
0.000683437029038664
0.000694503374979415
0.000705731265854186
0.000717122747400714
0.000728679886035589
0.000740404768979767
0.000752299504383423
0.000764366221450232
0.000776607070560961
0.000789024223396382
0.0008016198730595
0.000814396234196985
0.000827355543119882
0.000840500057923491
0.000853832058606401
0.000867353847188693
0.0008810677478292
0.000894976106941878
0.000909081293311192
0.000923385698206496
0.000937891735495423
0.000952601841756165
0.000967518476388706
0.00098264412172489
0.000997981283137326
0.00101353248914713
0.0010293002915304
0.00104528726542341
0.00106149600942656
0.00107792914570691
0.00109458932009941
0.00111147920220665
0.00112860148549719
0.00114595888740244
0.00116355414941193
0.00118139003716709
0.00119946934055342
0.00121779487379094
0.0012363694755231
0.00125519600890384
0.001274277361683
0.00129361644628981
0.00131321619991469
0.00133307958458908
0.00135320958726331
0.00137360921988265
0.00139428151946126
0.00141522954815408
0.00143645639332674
0.00145796516762324
0.00147975900903153
0.00150184108094684
0.00152421457223278
0.00154688269728018
0.00156984869606347
0.00159311583419485
0.00161668740297589
0.00164056671944675
0.00166475712643286
0.00168926199258898
0.00171408471244081
0.00173922870642378
0.0017646974209193
0.00179049432828814
0.00181662292690115
0.00184308674116708
0.00186988932155754
0.00189703424462902
0.00192452511304207
0.00195236555557726
0.00198055922714831
0.00200910980881192
0.00203802100777459
0.00206729655739622
0.00209694021719035
0.00212695577282133
0.00215734703609797
0.00218811784496385
0.00221927206348429
0.00225081358182972
0.00228274631625564
0.0023150742090789
0.00234780122865045
0.00238093136932444
0.00241446865142345
0.0024484171212002
0.0024827808507953
0.00251756393819108
0.00255277050716179
0.00258840470721953
0.00262447071355641
0.00266097272698262
0.00269791497386031
0.00273530170603348
0.00277313720075358
0.00281142576060094
0.00285017171340192
0.00288937941214167
0.00292905323487263
0.00296919758461851
0.00300981688927391
0.00305091560149933
0.00309249819861166
0.00313456918247019
0.00317713307935772
0.00322019443985724
0.00326375783872373
0.0033078278747512
0.00335240917063494
0.00339750637282883
0.00344312415139788
0.00348926719986561
0.00353594023505658
0.00358314799693387
0.00363089524843132
0.0036791867752809
0.00372802738583463
0.00377742191088145
0.00382737520345886
0.00387789213865907
0.00392897761343006
0.00398063654637109
0.00403287387752278
0.00408569456815193
0.0041391036005305
0.00419310597770947
0.00424770672328675
0.00430291088116966
0.0043587235153318
0.00441514970956405
0.00447219456722007
0.00452986321095588
0.00458816078246363
0.00464709244219971
0.00470666336910684
0.00476687876033023
0.00482774383092805
0.00488926381357561
0.00495144395826383
0.00501428953199151
0.00507780581845158
0.00514199811771133
0.00520687174588643
0.00527243203480888
0.00533868433168879
0.00540563399876984
0.00547328641297873
0.00554164696556817
0.00561072106175374
0.00568051412034442
0.00575103157336668
0.00582227886568248
0.00589426145460062
0.00596698480948194
0.00604045441133801
0.0061146757524233
0.00618965433582122
0.00626539567502328
0.00634190529350221
0.00641918872427826
0.00649725150947912
0.00657609919989345
0.00665573735451757
0.00673617154009603
0.0068174073306553
0.00689945030703092
0.00698230605638844
0.00706598017173724
0.00715047825143832
0.00723580589870512
0.00732196872109787
0.0074089723300115
0.0074968223401567
0.00758552436903465
0.007675084036405
0.00776550696374721
0.00785679877371562
0.00794896508958748
0.00804201153470486
0.00813594373190974
0.00823076730297248
0.00832648786801406
0.00842311104492138
0.00852064244875643
0.00861908769115865
0.00871845237974088
0.00881874211747901
0.00891996250209476
0.00902211912543252
0.00912521757282943
0.00922926342247898
0.00933426224478869
0.00944021960173082
0.00954714104618731
0.00965503212128808
0.00976389835974303
0.0098737452831681
0.00998457840140483
0.0100964032118337
0.0102092251986818
0.0103230498323236
0.0104378825685764
0.0105537288479894
0.0106705940951263
0.0107884837178435
0.0109074031065601
0.011027357633524
0.0111483526520715
0.0112703934958805
0.011393485478219
0.0115176338911872
0.0116428440049544
0.0117691210669902
0.0118964703012897
0.0120248969075943
0.0121544060606062
0.0122850029091977
0.0124166925756157
0.0125494801546802
0.0126833707129786
0.0128183692880542
0.0129544808875899
0.0130917104885867
0.0132300630365382
0.0133695434445991
0.0135101565927498
0.013651907326956
0.0137948004583242
0.0139388407622516
0.0140840329775731
0.0142303818057025
0.0143778919097707
0.014526567913759
0.0146764144016281
0.0148274359164442
0.0149796369594999
0.0151330219894326
0.0152875954213377
0.0154433616258795
0.0156003249283981
0.0157584896080128
0.0159178598967221
0.0160784399785007
0.0162402339883935
0.0164032460116062
0.0165674800825933
0.0167329401841433
0.016899630246461
0.0170675541462474
0.0172367157057775
0.0174071186919746
0.0175787668154839
0.0177516637297429
0.0179258130300502
0.0181012182526323
0.018277882873709
0.0184558103085567
0.0186350039105705
0.0188154669703248
0.0189972027146327
0.0191802143056044
0.0193645048397046
0.0195500773468086
0.0197369347892586
0.0199250800609182
0.020114515986228
0.020305245319259
0.0204972707427678
0.0206905948672503
0.0208852202299964
0.0210811492941443
0.0212783844477355
0.0214769280027712
0.0216767821942673
0.0218779491793125
0.0220804310361264
0.022284229763118
0.0224893472779475
0.0226957854165871
0.0229035459323856
0.0231126304951336
0.0233230406901305
0.0235347780172545
0.0237478438900338
0.0239622396347209
0.0241779664893695
0.0243950256029134
0.0246134180342492
0.0248331447513213
0.0250542066302106
0.0252766044542267
0.0255003389130026
0.025725410601595
0.0259518200195865
0.026179567570193
0.0264086535593755
0.0266390781949552
0.0268708415857346
0.0271039437406217
0.0273383845677611
0.0275741638736681
0.0278112813623698
0.0280497366345506
0.0282895291867036
0.0285306584102881
0.0287731235908924
0.0290169239074036
0.029262058431183
0.0295085261252481
0.029756325843462
0.0300054563297288
0.030255916217196
0.0305077040274652
0.0307608181698088
0.0310152569403955
0.0312710185215227
0.0315281009808569
0.0317865022706831
0.0320462202271612
0.0323072525695919
0.032569596899691
0.0328332507008717
0.0330982113375376
0.0333644760543833
0.0336320419757051
0.0339009061047216
0.0341710653229026
0.0344425163893101
0.0347152559399474
0.0349892804871196
0.0352645864188042
0.035541169998032
0.0358190273622798
0.0360981545228731
0.0363785473643998
0.0366602016441366
0.0369431129914855
0.0372272769074226
0.0375126887639586
0.0377993438036116
0.0380872371388915
0.0383763637517976
0.0386667184933279
0.038958296083002
0.0392510911083954
0.0395450980246893
0.0398403111542305
0.0401367246861076
0.040434332675739
0.0407331290444746
0.0410331075792127
0.0413342619320291
0.0416365856198221
0.0419400720239708
0.0422447143900079
0.0425505058273079
0.0428574393087892
0.043165507670632
0.0434747036120107
0.0437850196948415
0.0440964483435463
0.044408981844831
0.0447226123474802
0.045037331862168
0.0453531322612833
0.0456700052787736
0.0459879425100026
0.0463069354116262
0.0466269753014837
0.0469480533585059
0.047270160622641
0.0475932879947958
0.0479174262367952
0.0482425659713586
0.0485686976820927
0.0488958117135034
0.0492238982710231
0.0495529474210581
0.0498829490910513
0.0502138930695642
0.0505457690063771
0.0508785664126058
0.0512122746608383
0.0515468829852887
0.0518823804819695
0.0522187561088829
0.0525559986862298
0.0528940968966389
0.0532330392854126
0.0535728142607932
0.0539134100942474
0.05425481492077
0.0545970167392061
0.0549400034125937
0.0552837626685235
0.0556282820995198
0.05597354916344
0.0563195511838931
0.0566662753506785
0.0570137087202431
0.0573618382161594
0.0577106506296224
0.0580601326199652
0.0584102707151966
0.0587610513125562
0.0591124606790904
0.0594644849522482
0.0598171101404959
0.0601703221239529
0.0605241066550462
0.0608784493591862
0.0612333357354605
0.0615887511573491
0.0619446808734596
0.0623011100082806
0.0626580235629575
0.0630154064160862
0.0633732433245274
0.0637315189242414
0.064090217731142
0.0644493241419706
0.0648088224351903
0.0651686967718993
0.0655289311967652
0.0658895096389774
0.0662504159132216
0.0666116337206715
0.0669731466500019
0.067334938178421
0.0676969916727216
0.0680592903903533
0.0684218174805126
0.0687845559852532
0.069147488840616
0.0695105988777773
0.0698738688242175
0.0702372813049082
0.0706008188435177
0.0709644638636378
0.0713281986900262
0.0716920055498711
0.0720558665740719
0.0724197637985395
0.072783679165516
0.0731475945249109
0.0735114916356572
0.0738753521670854
0.0742391577003147
0.0746028897296632
0.0749665296640755
0.0753300588285678
0.0756934584656914
0.0760567097370122
0.0764197937246092
0.0767826914325887
0.0771453837886166
0.0775078516454671
0.0778700757825875
0.0782320369076815
0.078593715658306
0.0789550926034871
0.0793161482453504
0.079676863020767
0.0800372173030169
0.0803971914034661
0.08075676557326
0.0811159200050325
0.0814746348346281
0.0818328901428417
0.0821906659571704
0.0825479422535807
0.0829046989582908
0.0832609159495651
0.0836165730595241
0.0839716500759671
0.0843261267442077
0.0846799827689243
0.0850331978160212
0.0853857515145044
0.0857376234583684
0.0860887932084961
0.0864392402945706
0.086788944216998
0.0871378844488429
0.0874860404377745
0.0878333916080235
0.0881799173623505
0.0885255970840241
0.0888704101388102
0.0892143358769703
0.0895573536352704
0.0898994427389992
0.0902405825039945
0.0905807522386808
0.0909199312461132
0.0912580988260307
0.0915952342769184
0.091931316898076
0.092266325991695
0.0926002408649432
0.0929330408320549
0.0932647052164299
0.0935952133527369
0.0939245445890241
0.0942526782888361
0.0945795938333343
0.0949052706234254
0.095229688081892
0.0955528256555303
0.0958746628172902
0.0961951790684203
0.0965143539406169
0.0968321669981755
0.0971485978401464
0.097463626102492
0.0977772314602475
0.0980893936296833
0.098400092370469
0.0987093074878397
0.0990170188347625
0.0993232063141044
0.099627849880801
0.0999309295440245
0.100232425369353
0.100532317480937
0.100830586063668
0.101127211365346
0.101422173698841
0.101715453444256
0.102007031051094
0.102296887040407
0.10258500200696
0.10287135662138
0.103155931632305
0.10343870786853
0.10371966624115
0.103998787745695
0.104276053464263
0.104551444567649
0.104824942317462
0.105096528068248
0.105366183269594
0.105633889468236
0.105899628310151
0.106163381542655
0.106425131016474
0.106684858687831
0.106942546620502
0.107198176987882
0.10745173207503
0.107703194280711
0.107952546119428
0.108199770223442
0.108444849344784
0.108687766357255
0.10892850425842
0.109167046171581
0.109403375347751
0.109637475167607
0.109869329143437
0.110098920921069
0.110326234281791
0.110551253144261
0.110773961566396
0.110994343747256
0.111212384028907
0.111428066898271
0.111641376988971
0.111852299083143
0.112060818113255
0.112266919163888
0.112470587473521
0.112671808436288
0.112870567603721
0.113066850686481
0.113260643556065
0.113451932246505
0.113640702956038
0.113826942048771
0.114010636056315
0.114191771679415
0.114370335789546
0.114546315430505
0.114719697819972
0.114890470351061
0.115058620593843
0.115224136296856
0.115387005388592
0.115547215978964
0.115704756360748
0.115859615011018
0.116011780592538
0.116161241955157
0.116307988137161
0.116452008366619
0.116593292062695
0.116731828836949
0.116867608494607
0.11700062103581
0.117130856656844
0.117258305751343
0.117382958911468
0.117504806929068
0.117623840796811
0.117740051709292
0.117853431064124
0.117963970462993
0.118071661712701
0.118176496826171
0.118278468023441
0.118377567732622
0.118473788590835
0.118567123445126
0.118657565353348
0.118745107585026
0.118829743622188
0.118911467160176
0.118990272108426
0.119066152591229
0.119139102948458
0.11920911773627
0.119276191727788
0.119340319913748
0.119401497503122
0.119459719923717
0.119514982822742
0.119567282067352
0.119616613745164
0.119662974164741
0.119706359856058
0.119746767570927
0.119784194283412
0.1198186371902
0.11985009371095
0.119878561488621
0.119904038389762
0.11992652250478
0.119946012148178
0.119962505858765
0.11997600239984
0.119986500759347
0.119994000149997
0.119998500009375
0.12
0.119998500009375
0.119994000149997
0.119986500759347
0.11997600239984
0.119962505858765
0.119946012148178
0.11992652250478
0.119904038389762
0.119878561488621
0.11985009371095
0.1198186371902
0.119784194283412
0.119746767570927
0.119706359856058
0.119662974164741
0.119616613745164
0.119567282067352
0.119514982822742
0.119459719923717
0.119401497503122
0.119340319913748
0.119276191727788
0.11920911773627
0.119139102948458
0.119066152591229
0.118990272108426
0.118911467160176
0.118829743622188
0.118745107585026
0.118657565353348
0.118567123445126
0.118473788590835
0.118377567732622
0.118278468023441
0.118176496826171
0.118071661712701
0.117963970462993
0.117853431064124
0.117740051709292
0.117623840796811
0.117504806929068
0.117382958911468
0.117258305751343
0.117130856656844
0.11700062103581
0.116867608494607
0.116731828836949
0.116593292062695
0.116452008366619
0.116307988137161
0.116161241955157
0.116011780592538
0.115859615011018
0.115704756360748
0.115547215978964
0.115387005388592
0.115224136296856
0.115058620593843
0.114890470351061
0.114719697819972
0.114546315430505
0.114370335789546
0.114191771679415
0.114010636056315
0.113826942048771
0.113640702956038
0.113451932246505
0.113260643556065
0.113066850686481
0.112870567603721
0.112671808436288
0.112470587473521
0.112266919163888
0.112060818113255
0.111852299083143
0.111641376988971
0.111428066898271
0.111212384028907
0.110994343747256
0.110773961566396
0.110551253144261
0.110326234281791
0.110098920921069
0.109869329143437
0.109637475167607
0.109403375347751
0.109167046171581
0.10892850425842
0.108687766357255
0.108444849344784
0.108199770223442
0.107952546119428
0.107703194280711
0.10745173207503
0.107198176987882
0.106942546620502
0.106684858687831
0.106425131016474
0.106163381542655
0.105899628310151
0.105633889468236
0.105366183269594
0.105096528068248
0.104824942317462
0.104551444567649
0.104276053464263
0.103998787745695
0.10371966624115
0.10343870786853
0.103155931632305
0.10287135662138
0.10258500200696
0.102296887040407
0.102007031051094
0.101715453444256
0.101422173698841
0.101127211365346
0.100830586063668
0.100532317480937
0.100232425369353
0.0999309295440245
0.099627849880801
0.0993232063141044
0.0990170188347625
0.0987093074878397
0.098400092370469
0.0980893936296833
0.0977772314602475
0.097463626102492
0.0971485978401464
0.0968321669981755
0.0965143539406169
0.0961951790684203
0.0958746628172902
0.0955528256555303
0.095229688081892
0.0949052706234254
0.0945795938333343
0.0942526782888361
0.0939245445890241
0.0935952133527369
0.0932647052164299
0.0929330408320549
0.0926002408649432
0.092266325991695
0.091931316898076
0.0915952342769184
0.0912580988260307
0.0909199312461132
0.0905807522386809
0.0902405825039945
0.0898994427389992
0.0895573536352704
0.0892143358769703
0.0888704101388103
0.0885255970840241
0.0881799173623505
0.0878333916080235
0.0874860404377745
0.087137884448843
0.086788944216998
0.0864392402945706
0.0860887932084961
0.0857376234583684
0.0853857515145044
0.0850331978160212
0.0846799827689243
0.0843261267442077
0.0839716500759671
0.0836165730595242
0.0832609159495651
0.0829046989582908
0.0825479422535807
0.0821906659571704
0.0818328901428418
0.0814746348346281
0.0811159200050325
0.08075676557326
0.0803971914034661
0.080037217303017
0.079676863020767
0.0793161482453504
0.0789550926034871
0.078593715658306
0.0782320369076815
0.0778700757825875
0.0775078516454671
0.0771453837886166
0.0767826914325887
0.0764197937246092
0.0760567097370122
0.0756934584656914
0.0753300588285678
0.0749665296640755
0.0746028897296632
0.0742391577003147
0.0738753521670854
0.0735114916356572
0.0731475945249109
0.072783679165516
0.0724197637985395
0.0720558665740719
0.0716920055498711
0.0713281986900262
0.0709644638636378
0.0706008188435177
0.0702372813049082
0.0698738688242175
0.0695105988777773
0.069147488840616
0.0687845559852532
0.0684218174805126
0.0680592903903533
0.0676969916727216
0.067334938178421
0.0669731466500019
0.0666116337206715
0.0662504159132217
0.0658895096389774
0.0655289311967652
0.0651686967718993
0.0648088224351903
0.0644493241419707
0.064090217731142
0.0637315189242414
0.0633732433245274
0.0630154064160862
0.0626580235629576
0.0623011100082806
0.0619446808734596
0.0615887511573491
0.0612333357354605
0.0608784493591863
0.0605241066550462
0.0601703221239529
0.0598171101404959
0.0594644849522482
0.0591124606790905
0.0587610513125562
0.0584102707151966
0.0580601326199652
0.0577106506296224
0.0573618382161595
0.0570137087202431
0.0566662753506785
0.0563195511838931
0.05597354916344
0.0556282820995199
0.0552837626685235
0.0549400034125937
0.0545970167392061
0.05425481492077
0.0539134100942474
0.0535728142607932
0.0532330392854126
0.0528940968966389
0.0525559986862298
0.0522187561088829
0.0518823804819695
0.0515468829852887
0.0512122746608383
0.0508785664126058
0.0505457690063771
0.0502138930695642
0.0498829490910513
0.0495529474210581
0.0492238982710231
0.0488958117135034
0.0485686976820927
0.0482425659713586
0.0479174262367952
0.0475932879947958
0.047270160622641
0.0469480533585059
0.0466269753014837
0.0463069354116262
0.0459879425100026
0.0456700052787736
0.0453531322612833
0.045037331862168
0.0447226123474803
0.044408981844831
0.0440964483435463
0.0437850196948415
0.0434747036120107
0.0431655076706321
0.0428574393087892
0.0425505058273079
0.0422447143900079
0.0419400720239708
0.0416365856198221
0.0413342619320291
0.0410331075792127
0.0407331290444746
0.040434332675739
0.0401367246861077
0.0398403111542305
0.0395450980246893
0.0392510911083954
0.038958296083002
0.038666718493328
0.0383763637517976
0.0380872371388915
0.0377993438036116
0.0375126887639586
0.0372272769074227
0.0369431129914855
0.0366602016441366
0.0363785473643998
0.0360981545228731
0.0358190273622799
0.035541169998032
0.0352645864188042
0.0349892804871196
0.0347152559399474
0.0344425163893101
0.0341710653229026
0.0339009061047216
0.0336320419757051
0.0333644760543833
0.0330982113375376
0.0328332507008717
0.032569596899691
0.0323072525695919
0.0320462202271612
0.0317865022706831
0.0315281009808569
0.0312710185215227
0.0310152569403955
0.0307608181698088
0.0305077040274652
0.030255916217196
0.0300054563297288
0.029756325843462
0.0295085261252481
0.029262058431183
0.0290169239074036
0.0287731235908924
0.0285306584102881
0.0282895291867036
0.0280497366345506
0.0278112813623698
0.0275741638736681
0.0273383845677611
0.0271039437406217
0.0268708415857346
0.0266390781949552
0.0264086535593755
0.0261795675701931
0.0259518200195865
0.025725410601595
0.0255003389130026
0.0252766044542267
0.0250542066302107
0.0248331447513213
0.0246134180342492
0.0243950256029134
0.0241779664893695
0.023962239634721
0.0237478438900338
0.0235347780172545
0.0233230406901305
0.0231126304951336
0.0229035459323856
0.0226957854165871
0.0224893472779475
0.022284229763118
0.0220804310361264
0.0218779491793126
0.0216767821942673
0.0214769280027712
0.0212783844477355
0.0210811492941443
0.0208852202299964
0.0206905948672503
0.0204972707427678
0.020305245319259
0.020114515986228
0.0199250800609183
0.0197369347892586
0.0195500773468086
0.0193645048397046
0.0191802143056044
0.0189972027146327
0.0188154669703248
0.0186350039105705
0.0184558103085567
0.018277882873709
0.0181012182526323
0.0179258130300502
0.0177516637297429
0.0175787668154839
0.0174071186919746
0.0172367157057775
0.0170675541462474
0.016899630246461
0.0167329401841433
0.0165674800825933
0.0164032460116062
0.0162402339883935
0.0160784399785007
0.0159178598967221
0.0157584896080128
0.0156003249283981
0.0154433616258795
0.0152875954213377
0.0151330219894326
0.0149796369594999
0.0148274359164442
0.0146764144016281
0.014526567913759
0.0143778919097707
0.0142303818057025
0.0140840329775731
0.0139388407622516
0.0137948004583242
0.0136519073269561
0.0135101565927498
0.0133695434445991
0.0132300630365382
0.0130917104885867
0.0129544808875899
0.0128183692880542
0.0126833707129786
0.0125494801546802
0.0124166925756157
0.0122850029091977
0.0121544060606062
0.0120248969075943
0.0118964703012897
0.0117691210669902
0.0116428440049545
0.0115176338911872
0.011393485478219
0.0112703934958805
0.0111483526520715
0.0110273576335241
0.0109074031065601
0.0107884837178435
0.0106705940951263
0.0105537288479894
0.0104378825685765
0.0103230498323236
0.0102092251986818
0.0100964032118337
0.00998457840140483
0.00987374528316813
0.00976389835974303
0.00965503212128808
0.00954714104618731
0.00944021960173082
0.00933426224478869
0.00922926342247898
0.00912521757282943
0.00902211912543252
0.00891996250209476
0.00881874211747901
0.00871845237974088
0.00861908769115865
0.00852064244875643
0.00842311104492138
0.00832648786801406
0.00823076730297248
0.00813594373190974
0.00804201153470486
0.00794896508958748
0.00785679877371562
0.00776550696374721
0.007675084036405
0.00758552436903465
0.0074968223401567
0.0074089723300115
0.00732196872109787
0.00723580589870512
0.00715047825143832
0.00706598017173724
0.00698230605638844
0.00689945030703092
0.0068174073306553
0.00673617154009606
0.00665573735451758
0.00657609919989345
0.00649725150947912
0.00641918872427826
0.00634190529350223
0.00626539567502328
0.00618965433582122
0.0061146757524233
0.00604045441133801
0.00596698480948197
0.00589426145460062
0.00582227886568248
0.00575103157336668
0.00568051412034442
0.00561072106175376
0.00554164696556817
0.00547328641297873
0.00540563399876984
0.00533868433168879
0.0052724320348089
0.00520687174588645
0.00514199811771132
0.00507780581845158
0.00501428953199152
0.00495144395826384
0.00488926381357563
0.00482774383092803
0.00476687876033023
0.00470666336910684
0.00464709244219973
0.00458816078246365
0.00452986321095587
0.00447219456722007
0.00441514970956405
0.0043587235153318
0.00430291088116968
0.00424770672328674
0.00419310597770947
0.00413910360053051
0.00408569456815193
0.0040328738775228
0.00398063654637107
0.00392897761343006
0.00387789213865907
0.00382737520345886
0.00377742191088146
0.00372802738583462
0.0036791867752809
0.00363089524843133
0.00358314799693387
0.0035359402350566
0.0034892671998656
0.00344312415139788
0.00339750637282884
0.00335240917063494
0.00330782787475121
0.00326375783872372
0.00322019443985724
0.00317713307935772
0.00313456918247019
0.00309249819861168
0.00305091560149932
0.00300981688927391
0.00296919758461852
0.00292905323487263
0.00288937941214168
0.00285017171340192
0.00281142576060094
0.00277313720075358
0.00273530170603349
0.00269791497386032
0.00266097272698262
0.00262447071355641
0.00258840470721953
0.00255277050716179
0.00251756393819109
0.00248278085079529
0.00244841712120021
0.00241446865142345
0.00238093136932444
0.00234780122865047
0.00231507420907889
0.00228274631625564
0.00225081358182973
0.00221927206348429
0.00218811784496386
0.00215734703609796
0.00212695577282133
0.00209694021719035
0.00206729655739622
0.0020380210077746
0.00200910980881192
0.00198055922714831
0.00195236555557727
0.00192452511304207
0.00189703424462903
0.00186988932155755
0.00184308674116709
0.00181662292690116
0.00179049432828815
0.00176469742091931
0.00173922870642379
0.00171408471244081
0.00168926199258898
0.00166475712643286
0.00164056671944676
0.0016166874029759
0.00159311583419485
0.00156984869606347
0.00154688269728018
0.00152421457223279
0.00150184108094685
0.00147975900903153
0.00145796516762325
0.00143645639332675
0.00141522954815409
0.00139428151946126
0.00137360921988265
0.00135320958726331
0.00133307958458908
0.0013132161999147
0.00129361644628982
0.001274277361683
0.00125519600890385
0.0012363694755231
0.00121779487379095
0.00119946934055343
0.0011813900371671
0.00116355414941193
0.00114595888740244
0.0011286014854972
0.00111147920220666
0.00109458932009941
0.00107792914570692
0.00106149600942656
0.00104528726542342
0.00102930029153041
0.00101353248914714
0.000997981283137333
0.000982644121724897
0.000967518476388718
0.000952601841756178
0.000937891735495427
0.000923385698206504
0.0009090812933112
0.000894976106941891
0.000881067747829212
0.000867353847188698
0.00085383205860641
0.0008405000579235
0.000827355543119894
0.000814396234196997
0.000801619873059507
0.000789024223396392
0.000776607070560971
0.000764366221450245
0.000752299504383437
0.000740404768979774
0.000728679886035599
0.000717122747400724
0.000705731265854201
0.00069450337497943
0.000683437029038672
0.000672530202847021
0.000661780891645779
0.000651187110975364
0.000640746896547722
0.000630458304118257
0.000620319409357371
0.000610328307721537
0.000600483114324035
0.00059078196380532
0.00058122301020305
0.000571804426821829
0.000562524406102626
0.00055338115949198
0.000544372917310943
0.00053549792862382
0.000526754461106734
0.000518140800915985
0.000509655252556309
0.000501296138748994
0.000493061800299892
0.000484950595967382
0.000476960902330216
0.000469091113655393
0.000461339641765975
0.000453704915908916
0.000446185382622931
0.000438779505606365
0.00043148576558517
0.000424302660180929
0.000417228703778989
0.000410262427396723
0.000403402378551891
0.000396647121131182
0.00038999523525892
0.000383445317165932
0.00037699597905866
0.000370645848988434
0.000364393570721022
0.000358237803606414
0.000352177222448862
0.000346210517377217
0.000340336393715532
0.000334553571853995
0.000328860787120176
0.000323256789650602
0.000317740344262701
0.000312310230327074
0.00030696524164017
0.00030170418629734
0.000296525886566279
0.000291429178760905
0.000286412913115621
0.000281475953660052
0.000276617178094199
0.000271835477664064
0.000267129757037742
0.000262498934181976
0.000257941940239215
0.00025345771940516
0.000249045228806824
0.000244703438381105
0.000240431330753879
0.000236227901119631
0.000232092157121635
0.000228023118732672
0.000224019818136325
0.000220081299608815
0.00021620661940144
0.000212394845623576
0.000208645058126274
0.000204956348386453
0.000201327819391705
0.000197758585525682
0.000194247772454129
0.000190794517011525
0.000187397967088346
0.000184057281518978
0.000180771629970247
0.000177540192830606
0.000174362161099975
0.000171236736280217
0.000168163130266294
0.000165140565238062
0.000162168273552754
0.000159245497638119
0.000156371489886241
0.000153545512548042
0.00015076683762845
0.000148034746782272
0.00014534853121074
0.00014270749155875
0.000140110937812812
0.000137558189199663
0.000135048574085612
0.000132581429876565
0.000130156102918759
0.000127771948400211
0.000125428330252849
0.000123124621055377
0.00012086020193684
0.00011863446248089
0.000116446800630786
0.000114296622595085
0.000112183342754061
0.000110106383566835
0.000108065175479218
0.000106059156832277
0.000104087773771609
0.000102150480157334
0.000100246737474809
9.83760147460531e-05
9.65377884418931e-05
9.47315423948195e-05
9.29567677125644e-05
9.12129626923913e-05
8.94996327360986e-05
8.78162902657415e-05
8.61624546400581e-05
8.45376520716162e-05
8.29414155446661e-05
8.13732847337031e-05
7.98328059227434e-05
7.83195319252966e-05
7.68330220050543e-05
7.53728417972773e-05
7.39385632308843e-05
7.2529764451247e-05
7.1146029743674e-05
6.97869494576004e-05
6.84521199314678e-05
6.7141143418297e-05
6.58536280119552e-05
6.45891875741028e-05
6.33474416618351e-05
6.21280154560026e-05
6.09305396902123e-05
5.97546505805118e-05
5.85999897557413e-05
5.74662041885661e-05
5.63529461271762e-05
5.52598730276531e-05
5.41866474870049e-05
5.31329371768562e-05
5.20984147778043e-05
5.10827579144266e-05
5.00856490909417e-05
4.91067756275223e-05
4.81458295972491e-05
4.72025077637132e-05
4.62765115192553e-05
4.53675468238418e-05
4.44753241445758e-05
4.35995583958332e-05
4.27399688800298e-05
4.18962792290079e-05
4.10682173460432e-05
4.02555153484681e-05
3.94579095109028e-05
3.86751402090996e-05
3.79069518643885e-05
3.71530928887242e-05
3.64133156303317e-05
3.56873763199414e-05
3.49750350176172e-05
3.42760555601687e-05
3.35902055091445e-05
3.29172560994053e-05
3.22569821882676e-05
3.16091622052205e-05
3.09735781022065e-05
3.03500153044654e-05
2.97382626619368e-05
2.91381124012134e-05
2.85493600780483e-05
2.79718045304065e-05
2.74052478320574e-05
2.68494952467076e-05
2.63043551826645e-05
2.57696391480323e-05
2.52451617064318e-05
2.47307404332426e-05
2.42261958723633e-05
2.37313514934829e-05
2.32460336498633e-05
2.27700715366269e-05
2.23032971495434e-05
2.18455452443163e-05
2.13966532963582e-05
2.09564614610585e-05
2.05248125345332e-05
2.01015519148558e-05
1.96865275637647e-05
1.92795899688415e-05
1.88805921061583e-05
1.84893894033887e-05
1.81058397033778e-05
1.77298032281695e-05
1.73611425434825e-05
1.69997225236366e-05
1.66454103169202e-05
1.62980753113986e-05
1.59575891011565e-05
1.56238254529722e-05
1.52966602734179e-05
1.49759715763844e-05
1.46616394510237e-05
1.43535460301073e-05
1.40515754587953e-05
1.37556138638119e-05
1.34655493230248e-05
1.31812718354231e-05
1.29026732914905e-05
1.26296474439699e-05
1.23620898790145e-05
1.2099897987723e-05
1.1842970938054e-05
1.15912096471158e-05
1.13445167538285e-05
1.11027965919531e-05
1.08659551634857e-05
1.06339001124107e-05
1.04065406988123e-05
1.01837877733369e-05
9.96555375200552e-06
9.75175259137139e-06
9.54229976401876e-06
9.33711223439979e-06
9.13610843500614e-06
8.93920824286989e-06
8.74633295639271e-06
8.55740527249768e-06
8.37234926410097e-06
8.1910903579002e-06
8.01355531247449e-06
7.83967219669471e-06
7.66937036843886e-06
7.50258045360969e-06
7.33923432545156e-06
7.17926508416166e-06
7.02260703679421e-06
6.86919567745268e-06
6.71896766776725e-06
6.57186081765461e-06
6.4278140663555e-06
6.28676746374844e-06
6.14866215193496e-06
6.01344034709383e-06
5.88104532160117e-06
5.75142138641233e-06
5.62451387370365e-06
5.50026911977019e-06
5.37863444817631e-06
5.25955815315665e-06
5.14298948326334e-06
5.02887862525762e-06
4.91717668824207e-06
4.80783568803076e-06
4.70080853175445e-06
4.59604900269722e-06
4.49351174536288e-06
4.39315225076712e-06
4.29492684195295e-06
4.19879265972707e-06
4.10470764861322e-06
4.012630543021e-06
3.92252085362657e-06
3.83433885396278e-06
3.74804556721618e-06
3.66360275322757e-06
3.58097289569439e-06
3.50011918957158e-06
3.42100552866858e-06
3.34359649343999e-06
3.26785733896689e-06
3.19375398312687e-06
3.12125299494989e-06
3.05032158315755e-06
2.98092758488344e-06
2.9130394545718e-06
2.84662625305256e-06
2.78165763679003e-06
2.71810384730286e-06
2.65593570075335e-06
2.59512457770304e-06
2.53564241303311e-06
2.47746168602681e-06
2.42055541061175e-06
2.36489712576017e-06
2.31046088604426e-06
2.25722125234529e-06
2.20515328271366e-06
2.15423252337809e-06
2.10443499990186e-06
2.05573720848373e-06
2.00811610740192e-06
1.96154910859876e-06
1.91601406940413e-06
1.87148928439581e-06
1.82795347739448e-06
1.78538579359177e-06
1.74376579180925e-06
1.70307343688635e-06
1.66328909219581e-06
1.62439351228399e-06
1.5863678356351e-06
1.54919357755696e-06
1.51285262318657e-06
1.47732722061406e-06
1.4425999741227e-06
1.40865383754385e-06
1.37547210772469e-06
1.34303841810727e-06
1.31133673241717e-06
1.28035133846004e-06
1.2500668420245e-06
1.22046816088981e-06
1.19154051893655e-06
1.16326944035901e-06
1.13564074397745e-06
1.10864053764893e-06
1.08225521277513e-06
1.05647143890562e-06
1.03127615843519e-06
1.00665658139369e-06
9.82600180327075e-07
9.59094685268106e-07
9.3612807879543e-07
9.13688591179613e-07
8.91764695614649e-07
8.7034510353386e-07
8.49418760008611e-07
8.28974839228674e-07
8.09002740062902e-07
7.8949208169898e-07
7.70432699360881e-07
7.5181464010297e-07
7.33628158679382e-07
7.1586371348751e-07
6.98511962584504e-07
6.81563759775392e-07
6.65010150771921e-07
6.48842369420795e-07
6.33051834000251e-07
6.1763014358389e-07
6.02569074470558e-07
5.87860576679339e-07
5.73496770508498e-07
5.5946994315735e-07
5.45772545410055e-07
5.3239718838021e-07
5.19336640315384e-07
5.0658382346049e-07
4.94131810979047e-07
4.81973823931406e-07
4.70103228308897e-07
4.58513532123076e-07
4.47198382549069e-07
4.36151563122116e-07
4.25366990986472e-07
4.14838714195668e-07
4.04560909063394e-07
3.94527877564061e-07
3.84734044782211e-07
3.75173956409986e-07
3.65842276291739e-07
3.56733784015106e-07
3.47843372547642e-07
3.39166045918272e-07
3.30696916942817e-07
3.22431204992746e-07
3.14364233806516e-07
3.06491429342677e-07
2.9880831767405e-07
2.91310522922277e-07
2.83993765231973e-07
2.76853858783881e-07
2.69886709846269e-07
2.63088314863934e-07
2.56454758584147e-07
2.49982212218855e-07
2.43666931642556e-07
2.37505255625169e-07
2.31493604099283e-07
2.25628476461204e-07
2.19906449905144e-07
2.14324177790008e-07
2.08878388038175e-07
2.03565881565689e-07
1.98383530743325e-07
1.9332827788792e-07
1.88397133783488e-07
1.83587176231525e-07
1.78895548630008e-07
1.74319458580554e-07
1.69856176523206e-07
1.65503034398392e-07
1.61257424335499e-07
1.57116797367626e-07
1.53078662172006e-07
1.4914058383562e-07
1.45300182645557e-07
1.41555132903661e-07
1.37903161764993e-07
1.34342048099696e-07
1.30869621377795e-07
1.27483760576533e-07
1.24182393109809e-07
1.20963493779294e-07
1.17825083746848e-07
1.14765229527796e-07
1.11782042004704e-07
1.08873675461252e-07
1.06038326635829e-07
1.03274233794471e-07
1.00579675822769e-07
9.79529713364037e-08
9.53924778099304e-08
9.28965907234765e-08
9.04637427270082e-08
8.80924028218113e-08
8.57810755588796e-08
8.35283002538644e-08
8.13326502182686e-08
7.91927320065791e-08
7.71071846790032e-08
7.50746790795331e-08
7.30939171290153e-08
7.11636311329397e-08
6.92825831036599e-08
6.74495640967445e-08
6.56633935612012e-08
6.39229187032782e-08
6.22270138635798e-08
6.05745799072323e-08
5.89645436268229e-08
5.7395857157874e-08
5.58674974065806e-08
5.43784654895713e-08
5.29277861854433e-08
5.15145073978249e-08
5.01376996297371e-08
4.879645546901e-08
4.74898890845287e-08
4.62171357330807e-08
4.49773512765748e-08
4.37697117094205e-08
4.25934126958438e-08
4.14476691169268e-08
4.03317146271619e-08
3.92448012203065e-08
3.81861988043416e-08
3.71551947853246e-08
3.61510936599388e-08
3.51732166165448e-08
3.42209011445305e-08
3.32935006517788e-08
3.23903840900524e-08
3.15109355881124e-08
3.06545540923847e-08
2.98206530149832e-08
2.90086598889165e-08
2.82180160302892e-08
2.74481762073209e-08
2.66986083160036e-08
2.59687930622221e-08
2.5258223650155e-08
2.45664054767893e-08
2.38928558323666e-08
2.32371036065906e-08
2.25986890004213e-08
2.1977163243278e-08
2.13720883154857e-08
2.07830366757837e-08
2.02095909937253e-08
1.9651343886795e-08
1.91078976620632e-08
1.85788640622083e-08
1.80638640157241e-08
1.75625273911342e-08
1.7074492755035e-08
1.65994071337811e-08
1.61369257786314e-08
1.56867119341681e-08
1.52484366097969e-08
1.48217783541382e-08
1.44064230321101e-08
1.40020636045056e-08
1.36083999098591e-08
1.32251384483935e-08
1.2851992167836e-08
1.24886802508825e-08
1.21349279040892e-08
1.17904661479602e-08
1.14550316079958e-08
1.11283663064587e-08
1.08102174546067e-08
1.05003372451359e-08
1.01984826445668e-08
9.90441518529764e-09
9.61790075704234e-09
9.33870939735428e-09
9.06661508093473e-09
8.80139550740608e-09
8.54283188722135e-09
8.29070872536937e-09
8.04481360251737e-09
7.80493695322438e-09
7.5708718408383e-09
7.34241372867587e-09
7.11936024706822e-09
6.90151095583435e-09
6.68866710172942e-09
6.4806313703917e-09
6.277207632292e-09
6.07820068216856e-09
5.88341597140347e-09
5.69265933277673e-09
5.50573669700401e-09
5.3224538004387e-09
5.14261588329049e-09
4.96602737768026e-09
4.79249158482241e-09
4.62181034058946e-09
4.4537836686799e-09
4.28820942057373e-09
4.12488290141896e-09
3.96359648095556e-09
3.80413918853639e-09
3.64629629126205e-09
3.48984885419949e-09
3.33457328160257e-09
3.180240838004e-09
3.02661714799085e-09
2.87346167342022e-09
2.72052716677149e-09
2.56755909926797e-09
2.41429506233688e-09
2.26046414090554e-09
2.10578625696094e-09
1.94997148172408e-09
1.79271931470977e-09
1.63371792786274e-09
1.4726433728711e-09
1.30915874966898e-09
1.14291333404562e-09
9.73541662176414e-10
8.00662569791218e-10
6.23878183582859e-10
4.42772862347216e-10
2.5691208522733e-10
6.58412843078259e-11
-1.30915381320464e-10
-3.33856313044938e-10
-5.43503824923579e-10
-7.60405563892398e-10
-9.85136001451577e-10
-1.21829800045176e-09
-1.46052446077458e-09
-1.71248004787464e-09
-1.97486300833453e-09
-2.24840707677819e-09
-2.53388347868345e-09
-2.83210303384809e-09
-3.14391836547823e-09
-3.47022622009514e-09
-3.81196990369615e-09
-4.17014183984634e-09
-4.54578625564056e-09
-4.94000200174023e-09
-5.35394551296822e-09
-5.78883391623988e-09
-6.24594829290491e-09
-6.72663710289666e-09
-7.23231977841089e-09
-7.76449049517702e-09
-8.32472212974781e-09
-8.91467041159269e-09
-9.53607827917772e-09
-1.01907804496095e-08
-1.08807082118378e-08
-1.16078944538541e-08
-1.23744789347617e-08
-1.31827138130753e-08
-1.40349694430898e-08
-1.4933740451664e-08
-1.58816521083044e-08
-1.68814670019614e-08
-1.79360920385409e-08
-1.9048585773715e-08
-2.02221660962266e-08
-2.14602182775364e-08
-2.27663034043005e-08
-2.41441672108745e-08
-2.55977493297434e-08
-2.7131192978515e-08
-2.87488551028973e-08
-3.04553169958525e-08
-3.22553954139725e-08
-3.41541542129595e-08
-3.61569165249946e-08
-3.82692775016864e-08
-4.04971176472698e-08
-4.28466167676763e-08
-4.53242685621618e-08
-4.79368958852127e-08
-5.06916667075543e-08
-5.35961108062476e-08
-5.66581372149926e-08
-5.9886052467022e-08
-6.32885796642078e-08
-6.68748784073026e-08
-7.06545656236268e-08
-7.46377373298501e-08
-7.88349913690142e-08
-8.32574511624175e-08
-8.79167905185076e-08
-9.28252595425823e-08
-9.79957116926627e-08
-1.03441632028687e-07
-1.0917716670389e-07
-1.15217153749051e-07
-1.21577155202212e-07
-1.28273490638332e-07
-1.35323272155416e-07
-1.42744440875679e-07
-1.50555805022428e-07
-1.58777079635615e-07
-1.67428927991145e-07
-1.76533004791486e-07
-1.86112001197478e-07
-1.96189691773686e-07
-2.0679098342232e-07
-2.17941966383191e-07
-2.29669967380068e-07
-2.42003604996481e-07
-2.54972847366896e-07
-2.68609072272282e-07
-2.82945129731876e-07
-2.98015407186362e-07
-3.13855897370721e-07
-3.30504268978373e-07
-3.47999940221741e-07
-3.66384155397629e-07
-3.85700064569691e-07
-4.05992806483761e-07
-4.27309594835658e-07
-4.49699808015154e-07
-4.73215082453445e-07
-4.97909409705935e-07
-5.23839237406178e-07
-5.51063574231095e-07
-5.79644099022341e-07
-6.09645274212746e-07
-6.41134463711876e-07
-6.74182055409368e-07
-7.08861588459426e-07
-7.45249885515388e-07
-7.8342719008769e-07
-8.23477309204498e-07
-8.65487761559291e-07
-9.09549931335169e-07
-9.55759227901752e-07
-1.00421525158553e-06
-1.05502196572118e-06
-1.108287875197e-06
-1.16412621171365e-06
-1.22265512598234e-06
-1.28399788709401e-06
-1.34828308929859e-06
-1.41564486643947e-06
-1.48622311429532e-06
-1.56016372108889e-06
-1.63761880642829e-06
-1.7187469689548e-06
-1.80371354297802e-06
-1.89269086438622e-06
-1.98585854612897e-06
-2.08340376357465e-06
-2.18552155005537e-06
-2.29241510291892e-06
-2.4042961004153e-06
-2.52138502975514e-06
-2.64391152668345e-06
-2.77211472692308e-06
-2.90624362984952e-06
-3.04655747476767e-06
-3.19332613017146e-06
-3.34683049637395e-06
-3.50736292190704e-06
-3.67522763409803e-06
-3.85074118423953e-06
-4.03423290778064e-06
-4.22604539997368e-06
-4.42653500742388e-06
-4.63607233599748e-06
-4.85504277555339e-06
-5.08384704197612e-06
-5.32290173699372e-06
-5.57263992627867e-06
-5.83351173633799e-06
-6.10598497070851e-06
-6.3905457459873e-06
-6.68769914823214e-06
-6.99796991028263e-06
-7.32190311056072e-06
-7.66006489391914e-06
-8.01304321512135e-06
-8.38144860554016e-06
-8.7659149636797e-06
-9.16710037013288e-06
-9.5856879275957e-06
-1.00223866265764e-05
-1.04779322374393e-05
-1.09530882294421e-05
-1.14486467174309e-05
-1.19654294368688e-05
-1.25042887478875e-05
-1.30661086690548e-05
-1.3651805941569e-05
-1.42623311245957e-05
-1.48986697224735e-05
-1.55618433445303e-05
-1.62529108982506e-05
-1.69729698165557e-05
-1.77231573199597e-05
-1.85046517143754e-05
-1.93186737253588e-05
-2.01664878695771e-05
-2.10494038643063e-05
-2.19687780757653e-05
-2.29260150071034e-05
-2.39225688268617e-05
-2.49599449387484e-05
-2.60397015935535e-05
-2.71634515440566e-05
-2.83328637437728e-05
-2.9549665090392e-05
-3.08156422147777e-05
-3.21326433163813e-05
-3.35025800459468e-05
-3.49274294363778e-05
-3.64092358826367e-05
-3.79501131715659e-05
-3.95522465624938e-05
-4.12178949195186e-05
-4.29493928963468e-05
-4.47491531745604e-05
-4.66196687562083e-05
-4.85635153115787e-05
-5.05833535830421e-05
-5.26819318458329e-05
-5.48620884266274e-05
-5.71267542808023e-05
-5.94789556292008e-05
-6.19218166552774e-05
-6.44585622634532e-05
-6.70925208995069e-05
-6.98271274338441e-05
-7.26659261084287e-05
-7.56125735481913e-05
-7.86708418376973e-05
-8.18446216638317e-05
-8.51379255252827e-05
-8.85548910095246e-05
-9.20997841380465e-05
-9.57770027805143e-05
-9.95910801385348e-05
-0.000103546688299707
-0.00010764864186255
-0.000111901901632944
-0.000116311578392654
-0.00012088293674047
-0.000125621399006526
-0.000130532549240235
-0.000135622137272321
-0.000140896082851381
-0.000146360479855315
-0.000152021600578035
-0.000157885900091692
-0.00016396002068472
-0.000170250796375912
-0.000176765257504677
-0.000183510635397654
-0.000190494367111697
-0.000197724100253292
-0.000205207697874373
-0.000212953243444424
-0.000220969045898787
-0.00022926364476289
-0.000237845815352187
-0.000246724574047474
-0.00025590918364515
-0.000265409158782035
-0.000275234271434114
-0.000285394556488679
-0.000295900317389157
-0.000306762131851843
-0.000317990857653779
-0.000329597638490752
-0.000341593909904493
-0.000353991405277957
-0.000366802161897479
-0.000380038527080626
-0.000393713164368271
-0.000407839059779511
-0.000422429528127863
-0.000437498219397032
-0.000453059125174619
-0.000469126585141754
-0.00048571529361681
-0.000502840306151077
-0.000520517046174175
-0.000538761311687044
-0.000557589281999906
-0.000577017524512834
-0.0005970630015362
-0.00061774307714821
-0.000639075524086774
-0.000661078530672497
-0.000683770707759787
-0.000707171095712781
-0.000731299171402595
-0.000756174855222578
-0.000781818518117626
-0.000808250988623958
-0.000835493559915342
-0.000863567996851617
-0.000892496543025518
-0.000922301927803136
-0.000953007373353754
-0.000984636601664307
-0.00101721384153362
-0.00105076383554172
-0.00108531184698884
-0.00112088366679906
-0.00115750562038318
-0.00119520457445528
-0.00123400794379737
-0.00127394369796613
-0.001315040367936
-0.00135732705267228
-0.00140083342562809
-0.00144558974115888
-0.00149162684084764
-0.00153897615973432
-0.00158766973244262
-0.00163774019919685
-0.00168922081172223
-0.00174214543902079
-0.00179654857301576
-0.00185246533405686
-0.00190993147627848
-0.00196898339280355
-0.00202965812078422
-0.00209199334627202
-0.00215602740890886
-0.00222179930643039
-0.00228934869897377
-0.00235871591318052
-0.00242994194608621
-0.0025030684687879
-0.00257813782988059
-0.00265519305865313
-0.00273427786803523
-0.00281543665728537
-0.00289871451441091
-0.00298415721831069
-0.00307181124063041
-0.00316172374732181
-0.00325394259989507
-0.00334851635635534
-0.0034454942718133
-0.00354492629875982
-0.00364686308699524
-0.00375135598320257
-0.0038584570301552
-0.00396821896554891
-0.0040806952204478
-0.00419593991733497
-0.00431400786775666
-0.00443495456955073
-0.0045588362036491
-0.00468570963044368
-0.00481563238570697
-0.0049486626760558
-0.00508485937394943
-0.00522428201221178
-0.00536699077806748
-0.00551304650668332
-0.00566251067420373
-0.00581544539027205
-0.00597191339002763
-0.00613197802556901
-0.0062957032568753
-0.00646315364217491
-0.006634394327754
-0.00680949103719546
-0.00698851006003933
-0.00717151823985763
-0.00735858296173357
-0.00754977213913838
-0.00774515420019767
-0.00794479807333902
-0.0081487731723152
-0.00835714938059377
-0.00856999703510774
-0.00878738690936039
-0.00900939019587723
-0.00923607848800112
-0.00946752376102234
-0.00970379835264018
-0.00994497494275063
-0.0101911265325546
-0.0104423264229845
-0.0106986481924434
-0.0109601656738532
-0.0112269529310114
-0.0114990842342491
-0.0117766340353943
-0.0120596769420321
-0.012348287691065
-0.0126425411215713
-0.0129425121469594
-0.0132482757264217
-0.013559906835685
-0.0138774804370604
-0.0142010714487942
-0.0145307547137217
-0.0148666049672271
-0.0152086968045114
-0.0155571046471739
-0.0159119027091103
-0.0162731649617328
-0.0166409650985193
-0.0170153764988944
-0.0173964721914524
-0.0177843248165286
-0.0181790065881248
-0.0185805892552028
-0.0189891440623493
-0.0194047417098256
-0.0198274523130135
-0.020257345361264
-0.0206944896761681
-0.021138953369255
-0.0215908037991353
-0.022050107528103
-0.0225169302782074
-0.0229913368868172
-0.0234733912616843
-0.0239631563355314
-0.024460694020176
-0.0249660651602112
-0.0254793294862625
-0.0260005455678384
-0.0265297707657956
-0.027067061184441
-0.0276124716232895
-0.0281660555285037
-0.0287278649440339
-0.0292979504624858
-0.0298763611757377
-0.0304631446253331
-0.0310583467526759
-0.0316620118490508
-0.0322741825054993
-0.0328948995625768
-0.0335242020600183
-0.0341621271863463
-0.0348087102284427
-0.0354639845211209
-0.0361279813967254
-0.0368007301347899
-0.0374822579117899
-0.0381725897510144
-0.0388717484725959
-0.0395797546437291
-0.0402966265291102
-0.0410223800416372
-0.0417570286933974
-0.0425005835469828
-0.0432530531671679
-0.0440144435729817
-0.0447847581902181
-0.0455639978044118
-0.0463521605143228
-0.0471492416859643
-0.0479552339072103
-0.0487701269430246
-0.0495939076913432
-0.0504265601396517
-0.0512680653222953
-0.0521184012785596
-0.0529775430115576
-0.0538454624479685
-0.0547221283986577
-0.0556075065202232
-0.0565015592775039
-0.057404245907087
-0.0583155223818587
-0.059235341376628
-0.0601636522348676
-0.0611004009366081
-0.0620455300675209
-0.0629989787892339
-0.0639606828109073
-0.0649305743621141
-0.0659085821670594
-0.0668946314201709
-0.0678886437631055
-0.0688905372631955
-0.0699002263933775
-0.0709176220136358
-0.0719426313539898
-0.072975157999069
-0.0740151018742942
-0.0750623592337075
-0.0761168226494766
-0.0771783810031032
-0.0782469194783727
-0.0793223195560611
-0.0804044590104378
-0.0814932119075867
-0.0825884486055687
-0.083690035756461
-0.0847978363102832
-0.0859117095208442
-0.0870315109535273
-0.0881570924950328
-0.0892883023651056
-0.0904249851302555
-0.0915669817194958
-0.092714129442114
-0.0938662620074861
-0.0950232095469584
-0.0961847986377947
-0.097350852329212
-0.0985211901705091
-0.0996956282412944
-0.100873979183829
-0.102056052237476
-0.103241653275276
-0.104430584842637
-0.105622646198145
-0.106817633356506
-0.108015339133593
-0.109215553193617
-0.110418062098401
-0.111622649358763
-0.112829095487984
-0.114037178057367
-0.115246671753858
-0.116457348439733
-0.117668977214311
-0.118881324477709
-0.120094153996581
-0.121307226971852
-0.122520302108408
-0.123733135686713
-0.124945481636339
-0.126157091611377
-0.127367715067681
-0.128577099341944
-0.129784989732528
-0.130991129582066
-0.132195260361734
-0.13339712175721
-0.134596451756231
-0.135792986737731
-0.136986461562501
-0.138176609665314
-0.139363163148482
-0.140545852876766
-0.141724408573596
-0.142898558918541
-0.144068031645962
-0.145232553644774
-0.146391851059273
-0.147545649390924
-0.148693673601075
-0.149835648214478
-0.15097129742357
-0.152100345193419
-0.153222515367237
-0.154337531772398
-0.155445118326835
-0.156544999145745
-0.157636898648486
-0.15872054166556
-0.159795653545593
-0.160861960262172
-0.161919188520432
-0.162967065863282
-0.164005320777117
-0.165033682796913
-0.166051882610543
-0.167059652162179
-0.168056724754636
-0.169042835150489
-0.170017719671825
-0.170981116298424
-0.171932764764235
-0.17287240665193
-0.173799785485366
-0.174714646819751
-0.1756167383293
-0.176505809892173
-0.177381613672474
-0.17824390419906
-0.179092438440934
-0.179926975878961
-0.180747278573633
-0.18155311122862
-0.182344241249805
-0.183120438799523
-0.183881476845664
-0.184627131205334
-0.185357180582728
-0.186071406600859
-0.186769593826782
-0.18745152978992
-0.188117004993102
-0.188765812915897
-0.189397750009811
-0.190012615684899
-0.190610212287336
-0.191190345067457
-0.191752822137768
-0.192297454420413
-0.192824055583565
-0.193332441966174
-0.193822432490511
-0.194293848561915
-0.194746513955121
-0.195180254686553
-0.195594898871921
-0.195990276568463
-0.196366219601144
-0.196722561372092
-0.197059136652578
-0.197375781356772
-0.197672332296528
-0.197948626916433
-0.198204503008314
-0.198439798404422
-0.198654350648457
-0.198847996643623
-0.199020572276866
-0.199171912018456
-0.199301848496057
-0.199410212042424
-0.199496830215886
-0.199561527292725
-0.199604123730631
-0.199624435602348
-0.199622273998697
-0.199597444400124
-0.19954974601598
-0.199478971090714
-0.199384904176234
-0.199267321369673
-0.199125989515858
-0.198960665373807
-0.198771094746631
-0.198557011574248
-0.198318136988389
-0.198054178329419
-0.197764828124592
-0.197449763027377
-0.197108642717639
-0.196741108762488
-0.196346783437735
-0.195925268509988
-0.195476143979519
-0.194998966784169
-0.194493269464665
-0.193958558791861
-0.193394314356565
-0.192799987122758
-0.19217499794515
-0.191518736052232
-0.190830557496103
-0.19010978357058
-0.189355699199257
-0.18856755129542
-0.187744547095881
-0.186885852471074
-0.185990590213924
-0.185057838310275
-0.184086628193889
-0.183075942989267
-0.182024715745814
-0.180931827667128
-0.179796106339445
-0.178616323963564
-0.177391195594845
-0.176119377396133
-0.174799464908794
-0.173429991347262
-0.172009425922861
-0.170536172202881
-0.169008566511218
-0.167424876377161
-0.165783299039173
-0.164081960010816
-0.162318911716201
-0.160492132202658
-0.158599523938526
-0.156638912704241
-0.154608046585118
-0.152504595074431
-0.150326148295641
-0.14807021635276
-0.145734228818042
-0.143315534366341
-0.140811400565575
-0.138219013832895
-0.135535479566182
-0.132757822460581
-0.129882987019823
-0.126907838272005
-0.123829162699577
-0.120643669393106
-0.117347991438338
-0.113938687545946
-0.110412243933099
-0.106765076465864
-0.102993533071114
-0.0990938964263351
-0.0950623869353911
-0.0908951659978597
-0.0865883395791945
-0.0821379620883948
-0.077540040569383
-0.0727905392117032
-0.0678853841854762
-0.0628204688049519
-0.0575916590241904
-0.0521947992676699
-0.0466257185978073
-0.0408802372204425
-0.0349541733285284
-0.0288433502832018
-0.0225436041304684
-0.0160507914506896
-0.00936079753690359
-0.00246954489701156
0.00462699792641999
0.0119328072261174
0.019451794698408
0.0271877977198039
0.0351445693429132
0.0433257680241696
0.0517349470970946
0.0603755440061282
0.0692508693174826
0.0783640955246413
0.0877182456676221
0.0973161817863426
0.107160593229781
0.117253984843873
0.127598665062469
0.138196733926738
0.149050071059795
0.160160323624391
0.171528894292632
0.183156929257881
0.195045306319815
0.207194623074739
0.21960518524408
0.232276995174723
0.245209740545778
0.258402783316724
0.271855148952691
0.285565515962958
0.299532205789091
0.313753173079534
0.32822599638736
0.342947869328147
0.357915592234721
0.37312556434526
0.388573776561089
0.404255804809714
0.420166804048342
0.436301502942225
0.452654199251271
0.469218755957563
0.485988598164946
0.502956710800887
0.52011563714922
0.537457478240825
0.554973893127811
0.572656100064641
0.590494878618001
0.608480572725009
0.626603094717161
0.644851930325312
0.663216144678272
0.681684389305424
0.700244910150993
0.718885556604896
0.737593791552567
0.756356702442932
0.77516101337119
0.79399309816989
0.812838994498779
0.831684418921103
0.85051478295058
0.869315210050585
0.888070553563782
0.906765415547379
0.925384166486331
0.943910965853424
0.962329783482584
0.980624421718581
0.998778538303474
1.01677566995754
1.03459925660937
1.05223266622762
1.06965922020413
1.08686221923587
1.10382496965101
1.1205308101221
1.13696313870762
1.15310544016136
1.16894131344722
1.18445449939611
1.19962890843973
1.21444864835549
1.22889805195575
1.2429617046539
1.25662447183944
1.26987152599391
1.28268837347955
1.29506088093284
1.30697530119536
1.31841829871518
1.32937697435285
1.33983888952704
1.34979208963633
1.35922512669505
1.36812708112305
1.37648758263071
1.38429683014337
1.39154561071091
1.3982253173514
1.40432796578013
1.40984620997807
1.41477335655718
1.41910337788301
1.42283092391828
1.42595133275469
1.42846063980384
1.4303555856216
1.4316336223443
1.43229291871877
1.43233236371219
1.43175156869181
1.43055086816847
1.42873131910177
1.42629469876909
1.42324350120435
1.41958093221653
1.415310903002
1.41043802236848
1.40496758759238
1.398905573935
1.39225862284687
1.3850340288928
1.37723972543402
1.36888426910688
1.35997682314072
1.35052713956086
1.34054554032525
1.330042897446
1.31903061214992
1.30752059313396
1.29552523397406
1.28305738974776
1.27013035293233
1.25675782864226
1.2429539092707
1.22873304860096
1.21411003545478
1.19909996694492
1.18371822139987
1.16798043102883
1.15190245439502
1.13550034876522
1.11879034240293
1.10178880687193
1.08451222941617
1.06697718548079
1.04920031143798
1.03119827757989
1.01298776143893
0.994585421494701
0.976007871323854
0.957271654248173
0.938393218533083
0.919388893186854
0.900274864408249
0.881067152727508
0.861781590883295
0.842433802475036
0.823039181427447
0.803612872301111
0.784169751479797
0.764724409262529
0.745291132885014
0.725883890492182
0.706516316080492
0.687201695425388
0.66795295300661
0.648782639940626
0.629702922926711
0.610725574210193
0.591861962563324
0.573123045281745
0.554519361191367
0.53606102465807
0.517757720589965
0.499618700419305
0.481652779049089
0.463868332746724
0.446273297965192
0.428875171070057
0.411681008948563
0.394697430475572
0.377930618809098
0.361386324486819
0.345069869293542
0.328986150868146
0.313139648017671
0.29753442670492
0.282174146675255
0.267062068687492
0.25220106231306
0.237593614267388
0.223241837236857
0.209147479164588
0.195311932958242
0.181736246582879
0.168421133502327
0.155366983432477
0.142573873370455
0.130041578864051
0.117769585486208
0.105757100480254
0.0940030645420615
0.0825061637062537
0.0712648413044627
0.0602773099644761
0.0495415636203409
0.0390553895043504
0.0288163800930922
0.0188219449808976
0.00906932265513527
-0.000444407850768364
-0.00972231544962532
-0.0187676056597332
-0.0275836094514002
-0.0361737722998515
-0.0445416434621143
-0.0526908654943209
-0.060625164024444
-0.0683483377941554
-0.0758642489822811
-0.083176813820877
-0.090289993513831
-0.0972077854665561
-0.103934214834125
-0.110473326394072
-0.116829176748808
-0.123005826861577
-0.129007334928757
-0.134837749590232
-0.140501103478634
-0.146001407107189
-0.151342643095073
-0.156528760728287
-0.161563670853189
-0.166451241099152
-0.171195291425955
-0.175799589990948
-0.180267849330343
-0.184603722848398
-0.188810801607783
-0.192892611413827
-0.196852610185018
-0.200694185601643
-0.204420653024158
-0.208035253672556
-0.211541153057722
-0.214941439655562
-0.218239123814518
-0.221437136886887
-0.224538330574354
-0.227545476477945
-0.230461265842696
-0.233288309487247
-0.236029137908624
-0.23868620155254
-0.241261871239581
-0.243758438737807
-0.246178117472384
-0.248523043363025
-0.250795275780208
-0.252996798611294
-0.255129521427895
-0.257195280746074
-0.25919584137114
-0.261132897819123
-0.263008075807194
-0.264822933805603
-0.266578964643967
-0.268277597165007
-0.269920197919133
-0.271508072893527
-0.273042469269709
-0.274524577203796
-0.275955531624009
-0.277336414040225
-0.278668254360686
-0.27995203271123
-0.281188681252704
-0.282379085992489
-0.283524088586323
-0.284624488126892
-0.285681042915886
-0.286694472216486
-0.28766545798349
-0.288594646568506
-0.289482650397886
-0.290330049621264
-0.291137393728823
-0.291905203135547
-0.292633970730982
-0.29332416339315
-0.293976223465494
-0.294590570195845
-0.295167601136608
-0.295707693505479
-0.296211205506183
-0.296678477608807
-0.297109833789494
-0.297505582729306
-0.297866018972245
-0.298191424042469
-0.298482067520871
-0.29873820808125
-0.298960094486401
-0.299147966544518
-0.299302056026371
-0.299422587543779
-0.299509779389957
-0.299563844342367
-0.299584990428734
-0.299573421656948
-0.299529338709591
-0.299452939603848
-0.299344420317624
-0.299203975382662
-0.299031798445504
-0.298828082797146
-0.298593021872233
-0.298326809718675
-0.298029641438529
-0.297701713601038
-0.297343224628672
-0.296954375157059
-0.296535368369637
-0.296086410307902
-0.295607710158074
-0.295099480515024
-0.294561937624276
-0.293995301602883
-0.293399796639988
-0.292775651177813
-0.292123098073873
-0.291442374745129
-0.290733723294824
-0.289997390622702
-0.289233628519306
-0.288442693745025
-0.287624848094546
-0.286780358447349
-0.285909496804858
-0.285012540314859
-0.284089771283748
-0.2831414771772
-0.282167950609775
-0.281169489324018
-0.280146396159538
-0.279098979012584
-0.278027550786583
-0.276932429334103
-0.275813937390691
-0.274672402501012
-0.273508156937716
-0.272321537613414
-0.271112885986174
-0.269882547958889
-0.2686308737729
-0.267358217896192
-0.266064938906533
-0.264751399369851
-0.263417965714174
-0.262065008099436
-0.260692900283425
-0.259302019484177
-0.257892746239056
-0.256465464260814
-0.255020560290848
-0.253558423949928
-0.252079447586606
-0.25058402612355
-0.249072556902014
-0.247545439524649
-0.246003075696872
-0.244445869066984
-0.242874225065222
-0.24128855074194
-0.239689254605089
-0.23807674645717
-0.236451437231832
-0.234813738830264
-0.233164063957557
-0.231502825959158
-0.22983043865759
-0.228147316189565
-0.226453872843628
-0.224750522898466
-0.223037680462004
-0.221315759311425
-0.219585172734219
-0.217846333370383
-0.216099653055889
-0.21434554266751
-0.212584411969137
-0.210816669459652
-0.209042722222492
-0.207262975776966
-0.205477833931432
-0.203687698638414
-0.20189296985175
-0.200094045385844
-0.198291320777101
-0.196485189147619
-0.194676041071214
-0.192864264441834
-0.191050244344442
-0.189234362928414
-0.187416999283529
-0.185598529318582
-0.183779325642703
-0.181959757449405
-0.180140190403424
-0.178320986530398
-0.176502504109407
-0.174685097568433
-0.172869117382772
-0.171054909976422
-0.169242817626492
-0.167433178370641
-0.165626325917596
-0.163822589560749
-0.162022294094874
-0.160225759735964
-0.158433302044213
-0.156645231850154
-0.154861855183963
-0.153083473207933
-0.151310382152138
-0.149542873253261
-0.147781232696619
-0.146025741561366
-0.144276675768867
-0.142534306034252
-0.140798897821128
-0.139070711299438
-0.137350001306472
-0.135637017310993
-0.133932003380476
-0.132235198151433
-0.130546834802813
-0.128867141032442
-0.127196339036488
-0.125534645491928
-0.123882271541969
-0.12223942278442
-0.120606299262969
-0.118983095461324
-0.117370000300212
-0.115767197137159
-0.114174863769056
-0.112593172437437
-0.111022289836453
-0.10946237712349
-0.107913589932379
-0.106376078389177
-0.104849987130451
-0.103335455324034
-0.101832616692196
-0.100341599537182
-0.0988625267690811
-0.0973955159359522
-0.0959406792561789
-0.094498123652989
-0.0930679507910832
-0.0916502571153309
-0.0902451338914704
-0.0888526672487602
-0.0874729382245318
-0.0861060228105756
-0.084751992001321
-0.0834109118437404
-0.0820828434889262
-0.0807678432452867
-0.0794659626332923
-0.0781772484417298
-0.0769017427853964
-0.0756394831641787
-0.0743905025234629
-0.0731548293158096
-0.0719324875638458
-0.0707234969243111
-0.0695278727531999
-0.0683456261719491
-0.0671767641346017
-0.0660212894959058
-0.0648792010802801
-0.063750493751595
-0.0626351584837166
-0.0615331824317482
-0.0604445490039289
-0.0593692379341238
-0.0583072253548565
-0.0572584838708346
-0.0562229826329041
-0.0552006874123965
-0.0541915606758052
-0.053195561659746
-0.0522126464461538
-0.0512427680376581
-0.0502858764331006
-0.0493419187031391
-0.0484108390658936
-0.0474925789625918
-0.0465870771331609
-0.0456942696917328
-0.0448140902020105
-0.0439464697524576
-0.0430913370312712
-0.0422486184010904
-0.0414182379734116
-0.0406001176826634
-0.0397941773599087
-0.0390003348061363
-0.0382185058651035
-0.0374486044957013
-0.0366905428438037
-0.035944231313571
-0.0352095786381763
-0.034486491949921
-0.0337748768497166
-0.0330746374758983
-0.0323856765723465
-0.0317078955558913
-0.0310411945829687
-0.0303854726155126
-0.0297406274860541
-0.0291065559620071
-0.0284831538091219
-0.0278703158540806
-0.0272679360462239
-0.0266759075183844
-0.0260941226468116
-0.0255224731101758
-0.0249608499476291
-0.0244091436159169
-0.0238672440455219
-0.0233350406958308
-0.0228124226093124
-0.0222992784646948
-0.021795496629136
-0.0213009652093766
-0.0208155721018689
-0.020339205041874
-0.0198717516515243
-0.0194130994868414
-0.0189631360837113
-0.0185217490028093
-0.018088825873474
-0.0176642544365289
-0.017247922586049
-0.0168397184100742
-0.0164395302302703
-0.0160472466405358
-0.0156627565445615
-0.0152859491923395
-0.0149167142156312
-0.0145549416623937
-0.0142005220301711
-0.0138533462984564
-0.0135133059600271
-0.0131802930512654
-0.0128542001814654
-0.0125349205611374
-0.012222348029317
-0.0119163770798854
-0.0116169028869135
-0.0113238213290354
-0.0110370290128638
-0.0107564232954565
-0.0104819023058434
-0.0102133649656281
-0.00995071100867252
-0.00969384099987722
-0.0094426563530709
-0.00919705934801821
-0.008956953146562
-0.00872224180791068
-0.00849283030308446
-0.00826862452853459
-0.00804953131894729
-0.00783545845924868
-0.00762631469582296
-0.00742200974695849
-0.00722245431253682
-0.00702756008297739
-0.00683723974745477
-0.00665140700140148
-0.00646997655331178
-0.00629286413086185
-0.00611998648635972
-0.0059512614015422
-0.00578660769173201
-0.00562594520937116
-0.00546919484694572
-0.00531627853931601
-0.00516711926546899
-0.0050216410497066
-0.0048797689622856
-0.00474142911952422
-0.00460654868338952
-0.00447505586058176
-0.00434687990112956
-0.00422195109651092
-0.00410020077731504
-0.00398156131045855
-0.00386596609597184
-0.00375334956336886
-0.00364364716761485
-0.00353679538470641
-0.00343273170687685
-0.00333139463744191
-0.00323272368529834
-0.00313665935908934
-0.00304314316105021
-0.00295211758054661
-0.00286352608731946
-0.00277731312444831
-0.00269342410104614
-0.0026118053846981
-0.00253240429365577
-0.0024551690887997
-0.00238004896538148
-0.00230699404455698
-0.00223595536472253
-0.00216688487266429
-0.0020997354145329
-0.00203446072665323
-0.00197101542618011
-0.00190935500161053
-0.00184943580316165
-0.0017912150330254
-0.00173465073550863
-0.00167970178706844
-0.00162632788625201
-0.00157448954354942
-0.00152414807116883
-0.00147526557274204
-0.00142780493296888
-0.00138172980720868
-0.00133700461102616
-0.00129359450970001
-0.00125146540770105
-0.00121058393814742
-0.00117091745224377
-0.00113243400871093
-0.001095102363213
-0.00105889195778795
-0.00102377291028781
-0.000989716003834621
-0.000956692676297427
-0.000924675009796313
-0.000893635720238397
-0.000863548146891058
-0.000834386241997351
-0.000806124560438075
-0.000778738249445383
-0.000752203038371966
-0.00072649522852012
-0.000701591683034668
-0.000677469816863365
-0.000654107586788667
-0.000631483481534101
-0.000609576511948576
-0.000588366201271821
-0.000567832575483694
-0.000547956153740419
-0.000528717938900171
-0.000510099408140568
-0.000492082503670452
-0.000474649623537977
-0.000457783612537253
-0.000441467753215302
-0.000425685756981143
-0.000410421755318624
-0.000395660291104559
-0.000381386310033416
-0.000367585152149989
-0.000354242543491054
-0.000341344587837081
-0.000328877758574948
-0.000316828890672345
-0.000305185172764701
-0.000293934139355138
-0.00028306366312796
-0.000272561947376114
-0.000262417518542842
-0.000252619218877846
-0.000243156199208015
-0.000234017911822789
-0.000225194103474142
-0.000216674808491005
-0.000208450342008028
-0.000200511293308373
-0.000192848519280199
-0.000185453137986503
-0.00017831652234777
-0.00017143029393702
-0.00016478631688659
-0.000158376691906071
-0.000152193750410713
-0.000146230048759521
-0.000140478362602335
-0.000134931681335009
-0.000129583202661849
-0.000124426327264408
-0.000119454653575648
-0.000114661972658551
-0.000110042263188117
-0.000105589686535712
-0.000101298581954702
-9.71634618662371e-05
-9.31790072440973e-05
-8.93400630974078e-05
-8.56416340500653e-05
-8.2078880015685e-05
-7.86471119668207e-05
-7.53417877972707e-05
-7.2158508276187e-05
-6.90930130927423e-05
-6.61411769900839e-05
-6.32990059872717e-05
-6.05626336879364e-05
-5.7928317674335e-05
-5.53924359855039e-05
-5.29514836782046e-05
-5.06020694693242e-05
-4.83409124584408e-05
-4.61648389292118e-05
-4.40707792282712e-05
-4.20557647203211e-05
-4.01169248180815e-05
-3.82514840858049e-05
-3.64567594150256e-05
-3.47301572712409e-05
-3.30691710102264e-05
-3.14713782626719e-05
-2.99344383858689e-05
-2.84560899811497e-05
-2.70341484758114e-05
-2.56665037682586e-05
-2.43511179351002e-05
-2.30860229989678e-05
-2.18693187558074e-05
-2.06991706604258e-05
-1.95738077690802e-05
-1.84915207379002e-05
-1.74506598759685e-05
-1.64496332518731e-05
-1.54869048525728e-05
-1.45609927934302e-05
-1.367046757827e-05
-1.28139504083516e-05
-1.19901115391429e-05
-1.1197668683808e-05
-1.04353854623322e-05
-9.70206989521904e-06
-8.99657294072256e-06
-8.31778707457558e-06
-7.66464491120523e-06
-7.03611786543615e-06
-6.43121485369433e-06
-5.84898103375152e-06
-5.28849658205386e-06
-4.74887550770162e-06
-4.22926450216268e-06
-3.72884182381252e-06
-3.24681621641946e-06
-2.78242586070089e-06
-2.33493735809614e-06
-1.9036447459194e-06
-1.48786854306587e-06
-1.08695482546868e-06
-7.002743305125e-07
-3.27221589628791e-07
3.27859116857377e-08
3.80308547175226e-07
7.15885337180271e-07
1.04003471075989e-06
1.35325524327776e-06
1.65602637013536e-06
1.94880907732404e-06
2.23204656944632e-06
2.50616491584928e-06
2.77157367549435e-06
3.02866650117424e-06
3.2778217236762e-06
3.51940291647255e-06
3.75375944151014e-06
3.98122697665449e-06
4.20212802533126e-06
4.41677240889643e-06
4.62545774225068e-06
4.82846989320328e-06
5.02608342607778e-06
5.21856203003799e-06
5.40615893260373e-06
5.58911729881014e-06
5.76767061645555e-06
5.94204306787083e-06
6.11244988863031e-06
6.27909771361627e-06
6.44218491083463e-06
6.60190190337153e-06
6.75843147986916e-06
6.91194909388844e-06
7.06262315251648e-06
7.21061529456802e-06
7.3560806587178e-06
7.49916814189425e-06
7.64002064825369e-06
7.77877532904572e-06
7.9155638136729e-06
8.05051243223616e-06
8.18374242985252e-06
8.31537017302056e-06
8.44550734830262e-06
8.57426115358454e-06
8.70173448216511e-06
8.8280260999211e-06
8.95323081578592e-06
9.07743964577207e-06
9.20073997076246e-06
9.32321568828595e-06
9.44494735848875e-06
9.56601234450496e-06
9.68648494742345e-06
9.80643653604361e-06
9.92593567160349e-06
1.00450482276614e-05
1.01638375053038e-05
1.0282364343848e-05
1.04006872272032e-05
1.05188623860451e-05
1.06369438959602e-05
1.07549837717036e-05
1.08730320577153e-05
1.09911369150324e-05
1.11093447047299e-05
1.12277000680198e-05
1.1346246003133e-05
1.14650239391038e-05
1.15840738065748e-05
1.17034341057326e-05
1.18231419714847e-05
1.19432332359816e-05
1.20637424885851e-05
1.21847031333815e-05
1.23061474443332e-05
1.242810661816e-05
1.25506108250381e-05
1.2673689257201e-05
1.27973701755257e-05
1.29216809541808e-05
1.3046648123414e-05
1.31722974105517e-05
1.32986537792826e-05
1.34257414672912e-05
1.3553584022309e-05
1.36822043366453e-05
1.38116246802594e-05
1.39418667324321e-05
1.40729516120936e-05
1.42048999068621e-05
1.43377317008457e-05
1.44714666012571e-05
1.46061237638909e-05
1.47417219175099e-05
1.48782793871844e-05
1.50158141166292e-05
1.51543436895789e-05
1.52938853502411e-05
1.54344560228684e-05
1.55760723304825e-05
1.57187506127891e-05
1.5862506943316e-05
1.60073571458081e-05
1.61533168099106e-05
1.63004013061702e-05
1.64486258003845e-05
1.65980052673263e-05
1.67485545038706e-05
1.69002881415502e-05
1.70532206585635e-05
1.72073663912593e-05
1.73627395451215e-05
1.75193542052737e-05
1.76772243465286e-05
1.78363638429973e-05
1.79967864772825e-05
1.81585059492705e-05
1.83215358845419e-05
1.84858898424179e-05
1.8651581323657e-05
1.88186237778197e-05
1.89870306103147e-05
1.91568151891414e-05
1.93279908513436e-05
1.95005709091852e-05
1.96745686560629e-05
1.98499973721669e-05
2.00268703299e-05
2.02052007990699e-05
2.03850020518606e-05
2.05662873675961e-05
2.07490700373061e-05
2.09333633681007e-05
2.11191806873659e-05
2.13065353467865e-05
2.14954407262052e-05
2.1685910237325e-05
2.18779573272639e-05
2.20715954819672e-05
2.22668382294858e-05
2.2463699143125e-05
2.26621918444733e-05
2.28623300063119e-05
2.30641273554178e-05
2.32675976752584e-05
2.34727548085878e-05
2.36796126599485e-05
2.38881851980816e-05
2.40984864582533e-05
2.43105305444975e-05
2.4524331631784e-05
2.47399039681106e-05
2.49572618765273e-05
2.51764197570948e-05
2.53973920887782e-05
2.56201934312842e-05
2.58448384268398e-05
2.60713418019183e-05
2.62997183689157e-05
2.65299830277778e-05
2.67621507675838e-05
2.6996236668085e-05
2.72322559012053e-05
2.7470223732501e-05
2.7710155522587e-05
2.79520667285273e-05
2.81959729051931e-05
2.84418897065919e-05
2.86898328871665e-05
2.89398183030681e-05
2.91918619134035e-05
2.94459797814585e-05
2.9702188075899e-05
2.99605030719503e-05
3.02209411525582e-05
3.04835188095297e-05
3.07482526446576e-05
3.10151593708287e-05
3.12842558131154e-05
3.15555589098558e-05
3.18290857137181e-05
3.21048533927538e-05
3.23828792314398e-05
3.26631806317087e-05
3.29457751139708e-05
3.32306803181263e-05
3.35179140045688e-05
3.3807494055182e-05
3.40994384743281e-05
3.43937653898322e-05
3.46904930539581e-05
3.49896398443806e-05
3.52912242651528e-05
3.55952649476683e-05
3.59017806516212e-05
3.62107902659618e-05
3.65223128098491e-05
3.68363674336023e-05
3.71529734196481e-05
3.74721501834691e-05
3.77939172745479e-05
3.81182943773128e-05
3.84453013120809e-05
3.87749580360019e-05
3.91072846440016e-05
3.94423013697258e-05
3.97800285864836e-05
4.01204868081932e-05
4.04636966903265e-05
4.08096790308572e-05
4.11584547712082e-05
4.1510044997202e-05
4.18644709400123e-05
4.22217539771167e-05
4.2581915633254e-05
4.29449775813811e-05
4.33109616436341e-05
4.36798897922912e-05
4.40517841507379e-05
4.44266669944373e-05
4.48045607519006e-05
4.5185488005663e-05
4.55694714932612e-05
4.59565341082149e-05
4.6346698901013e-05
4.67399890801014e-05
4.71364280128755e-05
4.75360392266772e-05
4.79388464097934e-05
4.83448734124615e-05
4.87541442478775e-05
4.91666830932073e-05
4.9582514290604e-05
5.00016623482279e-05
5.04241519412726e-05
5.08500079129937e-05
5.1279255275743e-05
5.17119192120078e-05
5.21480250754521e-05
5.25875983919669e-05
5.30306648607214e-05
5.34772503552201e-05
5.39273809243659e-05
5.4381082793526e-05
5.48383823656049e-05
5.52993062221206e-05
5.57638811242868e-05
5.62321340141004e-05
5.6704092015432e-05
5.71797824351247e-05
5.76592327640962e-05
5.81424706784458e-05
5.86295240405682e-05
5.912042090027e-05
5.96151894958951e-05
6.01138582554529e-05
6.0616455797752e-05
6.11230109335403e-05
6.16335526666499e-05
6.2148110195148e-05
6.26667129124933e-05
6.31893904086968e-05
6.371617247149e-05
6.42470890874967e-05
6.47821704434129e-05
6.53214469271896e-05
6.58649491292239e-05
6.64127078435538e-05
6.69647540690593e-05
6.75211190106702e-05
6.80818340805791e-05
6.86469308994591e-05
6.92164412976897e-05
6.97903973165857e-05
7.0368831209635e-05
7.09517754437401e-05
7.15392627004664e-05
7.2131325877297e-05
7.27279980888909e-05
7.33293126683514e-05
7.39353031684976e-05
7.45460033631421e-05
7.51614472483763e-05
7.57816690438593e-05
7.64067031941162e-05
7.70365843698399e-05
7.76713474692004e-05
7.83110276191598e-05
7.89556601767922e-05
7.96052807306139e-05
8.02599251019153e-05
8.09196293461012e-05
8.1584429754038e-05
8.22543628534054e-05
8.2929465410055e-05
8.36097744293777e-05
8.42953271576734e-05
8.49861610835305e-05
8.56823139392103e-05
8.63838237020358e-05
8.70907285957927e-05
8.78030670921316e-05
8.85208779119778e-05
8.92442000269502e-05
8.9973072660782e-05
9.07075352907536e-05
9.14476276491282e-05
9.21933897245948e-05
9.29448617637181e-05
9.37020842723952e-05
9.44650980173189e-05
9.52339440274475e-05
9.60086635954818e-05
9.67892982793478e-05
9.75758899036857e-05
9.83684805613495e-05
9.91671126149083e-05
9.99718286981571e-05
0.000100782671717635
0.000101599684854147
0.000102422911564297
0.000103252395582025
0.000104088180920152
0.00010493031187193
0.0001057788330126
0.000106633789200963
0.000107495225580945
0.00010836318758318
0.000109237720926598
0.000110118871620014
0.000111006685963731
0.000111901210551149
0.000112802492270377
0.000113710578305855
0.000114625516139983
0.000115547353554758
0.000116476138633415
0.000117411919762081
0.000118354745631425
0.000119304665238332
0.00012026172788757
0.000121225983193464
0.000122197481081593
0.000123176271790476
0.000124162405873276
0.000125155934199504
0.000126156907956743
0.000127165378652361
0.000128181398115247
0.000129205018497549
0.000130236292276416
0.000131275272255749
0.000132322011567969
0.000133376563675775
0.000134438982373924
0.000135509321791011
0.00013658763639126
0.00013767398097632
0.000138768410687072
0.000139870981005439
0.000140981747756205
0.000142100767108848
0.000143228095579366
0.000144363790032127
0.00014550790768172
0.000146660506094805
0.000147821643191987
0.000148991377249684
0.000150169766902011
0.000151356871142666
0.000152552749326828
0.000153757461173064
0.00015497106676523
0.000156193626554407
0.000157425201360814
0.000158665852375751
0.00015991564116354
0.000161174629663475
0.000162442880191783
0.000163720455443586
0.000165007418494882
0.000166303832804522
0.000167609762216199
0.000168925270960454
0.000170250423656674
0.00017158528531511
0.000172929921338897
0.000174284397526085
0.000175648780071679
0.000177023135569679
0.000178407531015139
0.000179802033806229
0.000181206711746299
0.000182621633045966
0.000184046866325192
0.000185482480615383
0.000186928545361489
0.000188385130424117
0.000189852306081644
0.000191330143032349
0.000192818712396545
0.000194318085718725
0.000195828334969705
0.000197349532548793
0.000198881751285949
0.000200425064443968
0.000201979545720654
0.000203545269251021
0.000205122309609486
0.000206710741812084
0.00020831064131868
0.000209922084035196
0.000211545146315839
0.000213179904965355
0.000214826437241263
0.000216484820856128
0.000218155133979815
0.000219837455241771
0.000221531863733305
0.000223238439009881
0.000224957261093418
0.000226688410474597
0.000228431968115173
0.00023018801545031
0.000231956634390905
0.000233737907325935
0.000235531917124804
0.000237338747139703
0.000239158481207976
0.000240991203654495
0.000242836999294043
0.000244695953433713
0.000246568151875292
0.000248453680917688
0.000250352627359339
0.000252265078500641
0.000254191122146376
0.000256130846608166
0.000258084340706915
0.000260051693775273
0.000262032995660102
0.00026402833672496
0.00026603780785257
0.000268061500447332
0.000270099506437816
0.000272151918279275
0.000274218828956162
0.00027630033198466
0.000278396521415218
0.000280507491835096
0.00028263333837092
0.00028477415669124
0.000286930043009102
0.00028910109408463
0.00029128740722761
0.000293489080300092
0.000295706211718984
0.000297938900458676
0.000300187246053657
0.000302451348601146
0.000304731308763729
0.000307027227772013
0.00030933920742727
0.000311667350104116
0.000314011758753175
0.000316372536903763
0.000318749788666578
0.000321143618736401
0.0003235541323948
0.000325981435512848
0.000328425634553849
0.00033088683657607
0.000333365149235474
0.000335860680788488
0.000338373540094749
0.000340903836619873
0.000343451680438233
0.000346017182235743
0.000348600453312651
0.000351201605586339
0.000353820751594134
0.000356458004496131
0.000359113478078004
0.000361787286753865
0.000364479545569093
0.000367190370203188
0.000369919876972635
0.000372668182833774
0.000375435405385675
0.000378221662873027
0.000381027074189032
0.00038385175887831
0.000386695837139812
0.00038955942982973
0.000392442658464442
0.00039534564522344
0.000398268512952277
0.000401211385165522
0.000404174386049722
0.000407157640466372
0.000410161273954901
0.000413185412735646
0.000416230183712868
0.000419295714477731
0.000422382133311342
0.000425489569187754
0.000428618151777003
0.000431768011448142
0.000434939279272292
0.000438132087025693
0.000441346567192767
0.000444582852969191
0.000447841078264977
0.000451121377707552
0.000454423886644864
0.000457748741148484
0.000461096078016712
0.000464466034777704
0.000467858749692597
0.000471274361758649
0.00047471301071238
0.000478174837032728
0.000481659981944213
0.000485168587420091
0.000488700796185555
0.000492256751720903
0.000495836598264738
0.000499440480817169
0.000503068545143019
0.000506720937775041
0.000510397806017149
0.000514099297947648
0.000517825562422476
0.000521576749078443
0.000525353008336509
0.000529154491405035
0.000532981350283056
0.000536833737763565
0.0005407118074368
0.000544615713693542
0.000548545611728415
0.000552501657543201
0.000556484007950164
0.000560492820575356
0.000564528253861984
0.000568590467073727
0.000572679620298096
0.000576795874449791
0.000580939391274063
0.000585110333350089
0.000589308864094352
0.000593535147764027
0.000597789349460383
0.000602071635132166
0.000606382171579032
0.000610721126454954
0.000615088668271643
0.000619484966401988
0.000623910191083486
0.000628364513421695
0.000632848105393683
0.000637361139851493
0.000641903790525612
0.000646476232028427
0.000651078639857738
0.000655711190400225
0.000660374060934951
0.000665067429636865
0.000669791475580307
0.000674546378742532
0.000679332320007228
0.000684149481168052
0.000688998044932165
0.000693878194923763
0.000698790115687651
0.000703733992692788
0.000708710012335849
0.000713718361944803
0.000718759229782479
0.000723832805050162
0.000728939277891177
0.000734078839394486
0.000739251681598297
0.000744457997493652
0.000749697981028073
0.000754971827109167
0.000760279731608257
0.000765621891364014
0.000770998504186103
0.000776409768858824
0.000781855885144768
0.000787337053788476
0.000792853476520111
0.000798405356059097
0.000803992896117841
0.000809616301405386
0.000815275777631108
0.000820971531508405
0.000826703770758403
0.000832472704113656
0.000838278541321858
0.000844121493149561
0.000850001771385904
0.000855919588846305
0.000861875159376249
0.000867868697854983
0.000873900420199277
0.000879970543367167
0.000886079285361709
0.00089222686523474
0.000898413503090639
0.000904639420090098
0.0009109048384539
0.000917209981466669
0.000923555073480702
0.000929940339919718
0.000936366007282669
0.000942832303147527
0.000949339456175097
0.000955887696112811
0.000962477253798552
0.000969108361164459
0.000975781251240759
0.000982496158159562
0.000989253317158732
0.000996052964585689
0.00100289533790125
0.00100978067568349
0.00101670921763155
0.00102368120456952
0.00103069687845026
0.0010377564823593
0.00104486026051864
0.00105200845829069
0.00105920132218203
0.0010664390998474
0.0010737220400935
0.00108105039288288
0.00108842440933781
0.00109584434174422
0.00110331044355551
0.00111082296939649
0.00111838217506725
0.00112598831754709
0.00113364165499835
0.00114134244677039
0.00114909095340345
0.00115688743663256
0.00116473215939147
0.00117262538581654
0.00118056738125065
0.00118855841224714
0.00119659874657372
0.0012046886532164
0.00121282840238336
0.00122101826550895
0.00122925851525759
0.00123754942552766
0.0012458912714555
0.00125428432941928
0.00126272887704297
0.00127122519320026
0.00127977355801852
0.0012883742528827
0.00129702756043928
0.00130573376460025
0.001314493150547
0.0013233060047343
0.00133217261489422
0.00134109327004008
0.0013500682604704
0.00135909787777285
0.00136818241482818
0.0013773221658142
0.00138651742620966
0.00139576849279828
0.00140507566367264
0.00141443923823816
0.00142385951721703
0.00143333680265215
0.0014428713979111
0.00145246360769008
0.00146211373801785
0.00147182209625968
0.00148158899112128
0.00149141473265277
0.00150129963225262
0.00151124400267159
0.00152124815801664
0.00153131241375495
0.00154143708671775
0.00155162249510438
0.00156186895848611
0.00157217679781018
0.00158254633540364
0.00159297789497737
0.00160347180162994
0.00161402838185158
0.00162464796352808
0.00163533087594476
0.00164607744979033
0.00165688801716085
0.00166776291156364
0.00167870246792119
0.00168970702257507
0.00170077691328986
0.00171191247925702
0.00172311406109882
0.00173438200087224
0.00174571664207286
0.00175711832963876
0.00176858740995438
0.00178012423085445
0.00179172914162787
0.00180340249302152
0.00181514463724423
0.00182695592797061
0.0018388367203449
0.00185078737098483
0.00186280823798554
0.00187489968092335
0.00188706206085966
0.00189929574034478
0.00191160108342179
0.00192397845563029
0.00193642822401037
0.00194895075710631
0.00196154642497046
0.00197421559916703
0.00198695865277589
0.00199977596039641
0.00201266789815121
0.00202563484368997
0.00203867717619322
0.00205179527637608
0.00206498952649208
0.00207826031033689
0.00209160801325209
0.00210503302212891
0.00211853572541198
0.00213211651310306
0.00214577577676477
0.00215951390952432
0.00217333130607723
0.00218722836269097
0.00220120547720875
0.00221526304905316
0.00222940147922986
0.00224362117033125
0.00225792252654015
0.00227230595363342
0.00228677185898565
0.00230132065157279
0.00231595274197578
0.00233066854238409
0.0023454684665995
0.00236035293003955
0.00237532234974122
0.00239037714436446
0.00240551773419579
0.00242074454115187
0.00243605798878304
0.00245145850227685
0.00246694650846164
0.00248252243581001
0.00249818671444233
0.0025139397761303
0.00252978205430037
0.00254571398403727
0.00256173600208745
0.00257784854686253
0.00259405205844278
0.00261034697858049
0.00262673375070345
0.00264321281991835
0.0026597846330141
0.00267644963846531
0.00269320828643563
0.0027100610287811
0.00272700831905346
0.00274405061250356
0.0027611883660846
0.00277842203845549
0.0027957520899841
0.0028131789827506
0.00283070318055061
0.00284832514889858
0.00286604535503095
0.00288386426790937
0.00290178235822397
0.00291980009839645
0.00293791796258334
0.00295613642667915
0.00297445596831946
0.00299287706688414
0.00301140020350036
0.00303002586104579
0.00304875452415163
0.00306758667920568
0.00308652281435541
0.00310556341951097
0.00312470898634825
0.00314396000831183
0.00316331698061799
0.00318278040025772
0.00320235076599953
0.00322202857839256
0.0032418143397694
0.003261708554249
0.00328171172773952
0.00330182436794128
0.00332204698434948
0.00334238008825712
0.00336282419275777
0.00338337981274838
0.00340404746493196
0.00342482766782045
0.00344572094173738
0.00346672780882057
0.00348784879302487
0.00350908442012477
0.00353043521771709
0.00355190171522358
0.00357348444389354
0.00359518393680646
0.00361700072887442
0.00363893535684485
0.00366098835930289
0.00368316027667399
0.00370545165122633
0.00372786302707329
0.00375039495017591
0.00377304796834528
0.00379582263124494
0.00381871949039327
0.00384173909916572
0.00386488201279731
0.00388814878838483
0.0039115399848891
0.00393505616313727
0.00395869788582501
0.00398246571751872
0.00400636022465774
0.00403038197555648
0.00405453154040656
0.00407880949127885
0.00410321640212567
0.00412775284878276
0.00415241940897134
0.00417721666230009
0.00420214519026717
0.00422720557626211
0.00425239840556781
0.00427772426536235
0.00430318374472098
0.0043287774346178
0.00435450592792775
0.00438036981942831
0.00440636970580127
0.00443250618563447
0.00445877985942354
0.00448519132957351
0.00451174120040053
0.00453843007813346
0.0045652585709155
0.00459222728880563
0.00461933684378034
0.00464658784973499
0.00467398092248535
0.00470151667976902
0.00472919574124685
0.00475701872850436
0.00478498626505305
0.00481309897633174
0.00484135748970792
0.00486976243447886
0.00489831444187304
0.00492701414505122
0.00495586217910767
0.00498485918107127
0.00501400578990662
0.00504330264651512
0.00507275039373605
0.00510234967634748
0.00513210114106739
0.00516200543655439
0.00519206321340888
0.00522227512417378
0.00525264182333537
0.00528316396732415
0.00531384221451557
0.00534467722523078
0.00537566966173735
0.00540682018824991
0.0054381294709308
0.00546959817789068
0.005501226979189
0.00553301654683468
0.00556496755478648
0.00559708067895351
0.0056293565971956
0.00566179598932374
0.00569439953710037
0.00572716792423971
0.00576010183640802
0.0057932019612239
0.00582646898825827
0.0058599036090348
0.00589350651702988
0.00592727840767269
0.00596121997834529
0.00599533192838258
0.00602961495907231
0.00606406977365493
0.00609869707732356
0.0061334975772238
0.0061684719824534
0.00620362100406226
0.006238945355052
0.00627444575037569
0.00631012290693744
0.00634597754359206
0.00638201038114458
0.00641822214234977
0.00645461355191164
0.00649118533648288
0.00652793822466409
0.0065648729470034
0.00660199023599559
0.00663929082608136
0.00667677545364664
0.00671444485702166
0.00675229977648014
0.00679034095423838
0.00682856913445427
0.00686698506322636
0.00690558948859263
0.00694438316052964
0.00698336683095128
0.00702254125370755
0.00706190718458341
0.00710146538129746
0.00714121660350064
0.00718116161277484
0.00722130117263157
0.00726163604851041
0.00730216700777749
0.00734289481972404
0.00738382025556478
0.00742494408843617
0.00746626709339481
0.00750779004741567
0.00754951372939031
0.00759143892012501
0.00763356640233893
0.00767589696066218
0.00771843138163367
0.00776117045369936
0.00780411496721
0.00784726571441899
0.00789062348948025
0.00793418908844598
0.00797796330926435
0.00802194695177719
0.00806614081771761
0.00811054571070757
0.00815516243625527
0.00819999180175282
0.00824503461647351
0.0082902916915692
0.00833576384006765
0.00838145187686971
0.00842735661874657
0.00847347888433692
0.00851981949414399
0.0085663792705327
0.00861315903772637
0.00866015962180406
0.00870738185069714
0.00875482655418625
0.00880249456389803
0.00885038671330183
0.00889850383770639
0.00894684677425646
0.00899541636192929
0.00904421344153128
0.00909323885569409
0.00914249344887143
0.00919197806733516
0.00924169355917157
0.00929164077427765
0.00934182056435721
0.00939223378291698
0.00944288128526272
0.00949376392849511
0.00954488257150578
0.009596238074973
0.00964783130135774
0.00969966311489925
0.00975173438161086
0.00980404596927549
0.00985659874744138
0.00990939358741747
0.00996243136226896
0.0100157129468127
0.0100692392176124
0.0101230110529742
0.0101770293329414
0.0102312949392903
