0.00356518581481412
0.00349209995861185
0.00342047675492321
0.00335028699474924
0.00328150205322445
0.0032140938779331
0.00314803497745909
0.00308329841016495
0.00301985777319514
0.00295768719169936
0.0550423626484369
0.0539136784110418
0.0528075829133971
0.0517236250685552
0.05066136281057
0.0496203629140602
0.0486002008173814
0.0476004604493342
0.0466207340593391
0.0456606220510068
0.0410981210230756
0.0402503133750698
0.0394194828281162
0.0386052904751665
0.0378074041864567
0.0370254984739454
0.0362592543584651
0.035508359239528
0.034772506767738
0.0340513967197532
0.0778379026207544
0.0762332963589808
0.0746608211534305
0.0731198355584493
0.0716097109557059
0.0701298312976166
0.0686795928559034
0.0672584039751773
0.0658656848314543
0.0645008671954972
0.0674184708262637
0.0660205682119803
0.0646506753771021
0.063308233336909
0.0619926942844473
0.0607035213669431
0.0594401884666933
0.0582021799863317
0.056988990638394
0.0558001252390916
0.0546309722084031
0.053489393151819
0.0523707094208077
0.0512744642990826
0.0502002102024632
0.0491475084962092
0.0481159293159967
0.0471050513924869
0.0461144618793949
0.0451437561850025
0.0349213890883844
0.034179326822918
0.0334521789137741
0.0327396481260394
0.0320414431671203
0.03135727856787
0.0306868745660935
0.030029956992387
0.0293862571582557
0.0287555117464682
0.0254519813567873
0.0249014278143478
0.0243619681612497
0.0238333815138234
0.023315451403481
0.0228079656883913
0.0223107164669214
0.0218234999928089
0.021346116592031
0.0208783705813382
0.00363182708057819
0.00352694121635011
0.00342424130495145
0.00332368438704345
0.00322522835986971
0.00312883196010771
0.00303445474706177
0.00294205708619355
0.00285160013298213
0.00276304581710374
-0.0275080308096043
-0.0269741149309386
-0.0264507895758141
-0.0259378425738248
-0.0254350660003557
-0.0249422560916739
-0.0244592131617218
-0.0239857415205678
-0.023521649394493
-0.0230667488476737
-0.0499904346222824
-0.0489922955057231
-0.0480140350671605
-0.0470552557354487
-0.0461155678929668
-0.0451945897165458
-0.0442919470215779
-0.0434072731092443
-0.0425402086168001
-0.041690401370849
-0.0709618573570365
-0.0695284007525188
-0.0681235371927009
-0.066746695212021
-0.065397314775923
-0.0640748470522263
-0.0627787541870655
-0.0615085090853147
-0.0602635951954014
-0.0590435062984245
-0.0911355110418746
-0.0892811988280131
-0.0874639095329388
-0.0856829035213638
-0.0839374559518571
-0.0822268564809461
-0.0805504089731355
-0.0789074312167275
-0.0772972546453241
-0.0757192240648998
-0.0814350349100974
-0.0797705058905848
-0.0781392143114954
-0.0765404963473947
-0.0749737014502001
-0.0734381920836107
-0.0719333434628484
-0.0704585432996032
-0.0690131915520808
-0.0675967001800485
-0.0971735391653251
-0.0951782717205046
-0.0932228738777132
-0.0913065495582627
-0.0894285186052432
-0.0875880164650537
-0.0857842938753038
-0.0840166165589563
-0.0822842649245868
-0.0805865337726395
-0.0989331703667828
-0.0968924092711023
-0.0948924460393219
-0.0929324662753256
-0.0910116718705334
-0.0891292806781131
-0.0872845261937054
-0.0854766572425372
-0.0837049376727892
-0.0819686460550999
-0.0686698030596
-0.0672400030903764
-0.0658387943093885
-0.0644656063051392
-0.0631198800737403
-0.061801067790725
-0.0605086325874256
-0.0592420483318215
-0.0580007994137715
-0.0567843805345425
-0.00685826163004055
-0.0066890686732699
-0.00652325606879023
-0.00636075701188776
-0.00620150603360914
-0.00604543897402676
-0.00589249295603889
-0.00574260635969237
-0.00559571879702148
-0.00545177108738448
-0.00466642045079535
-0.00454138737044207
-0.00441885928174379
-0.00429878687501173
-0.00418112182622776
-0.00406581677731133
-0.00395282531678287
-0.00384210196081058
-0.00373360213463814
-0.00362728215438413
0.0199923919852432
0.0196124152690809
0.0192400320513206
0.0188750899685095
0.018517439704874
0.0181669349313771
0.0178234322459976
0.0174867911152004
0.0171568738165793
0.0168335453826465
0.0495725434253662
0.0485843574313205
0.0476159328790737
0.046666874459385
0.0457367947692957
0.0448253141540089
0.0439320605519262
0.0430566693427865
0.0421987831988404
0.0413580519390022
0.0732988462389743
0.0718197296081331
0.0703702008288687
0.0689496684696629
0.0675575529273185
0.0661932861903864
0.0648563116073209
0.0635460836592746
0.0622620677374369
0.0610037399248249
0.0912219125357637
0.0893686827113592
0.0875525344944961
0.0857727269637029
0.0840285340151394
0.0823192440662266
0.0806441597652043
0.0790025977064974
0.0773938881517749
0.0758173747565877
0.0972498121014189
0.0952647404980546
0.093319400435138
0.0914129982676888
0.0895447562223564
0.0877139120799628
0.0859197188643963
0.0841614445377253
0.0824383717014118
0.0807497973034984
0.0970155354693438
0.0950265367127593
0.0930773625397188
0.0911672176520315
0.0892953226557309
0.0874609137429578
0.0856632423802122
0.0839015750028351
0.0821751927156054
0.0804833909993197
0.101707701315661
0.0996139206144155
0.0975620779921531
0.0955513361447999
0.0935808745120359
0.0916498889423871
0.0897575913650126
0.0879032094680561
0.0860859863834316
0.084305180377914
0.0644309384310322
0.0630924451978037
0.0617807940038646
0.0604954492170937
0.0592358859155753
0.0580015896733639
0.056792056350536
0.0556067918874437
0.054445312103077
0.0533071424974638
0.0509819192362131
0.0499137870200865
0.0488671012789412
0.0478414342513176
0.0468363667282778
0.0458514878823255
0.0448863950997507
0.0439406938163263
0.0430139973562915
0.0421059267745538
0.0149407010505276
0.014607418101908
0.014280889304314
0.0139609803897836
0.0136475597730747
0.0133404984979939
0.0130396701847908
0.0127449509786155
0.012456219499001
0.0121733567903535
-0.0193835148399075
-0.0190137562871655
-0.0186513045906729
-0.0182960132119785
-0.0179477385458173
-0.0176063398614552
-0.0172716792452103
-0.0169436215441165
-0.0166220343107213
-0.0163067877489809
-0.0551818772437498
-0.0540756634446833
-0.0529914919840166
-0.0519289221223778
-0.0508875219371752
-0.0498668681462546
-0.0488665459350921
-0.0478861487874322
-0.0469252783193208
-0.0459835441164564
-0.0737578073212504
-0.0722649156403241
-0.0708018085477926
-0.0693678908336088
-0.0679625791935048
-0.0665853019908611
-0.0652354990233452
-0.0639126212942092
-0.0626161307881659
-0.0613455002517482
-0.0847929083444847
-0.0830662608447512
-0.0813740844150121
-0.0797156904358869
-0.0780904040615069
-0.076497563944026
-0.0749365219636393
-0.0734066429640017
-0.0719073044929386
-0.0704378965483405
-0.100430671284333
-0.0983749735163264
-0.0963603441390006
-0.0943859629852706
-0.0924510262918998
-0.0905547463713956
-0.088696351290463
-0.0868750845548905
-0.0850902048007385
-0.0833409854917038
-0.0608338948734587
-0.0595801248421771
-0.0583513912180068
-0.0571471942203416
-0.0559670440646649
-0.0548104607626035
-0.0536769739259812
-0.0525661225747908
-0.0514774549490067
-0.0504105283241615
-0.064900695139715
-0.0635574759401962
-0.062241095701208
-0.0609510187867313
-0.0596867202735028
-0.0584476857367313
-0.0572334110400996
-0.0560434021299666
-0.0548771748336853
-0.0537342546619538
-0.0634444041452395
-0.0621246942352301
-0.0608313673715438
-0.0595638971693326
-0.058321767771055
-0.057104473635897
-0.0559115193334067
-0.0547424193412553
-0.0535966978470431
-0.0524738885540686
-0.039229214440628
-0.038399824792845
-0.0375870213392564
-0.0367904734766691
-0.0360098572134053
-0.0352448550370457
-0.0344951557848145
-0.0337604545165611
-0.0330404523902781
-0.0323348565401125
-0.000326075590933783
-0.000290437764939977
-0.000255514058971507
-0.000221290917636674
-0.000187755056235694
-0.000154893455329708
-0.000122693355416592
-9.11422517149152e-05
-6.02278890511343e-05
-2.99382568509365e-05
0.0378711341316775
0.037123850580592
0.036391514024021
0.0356738252679649
0.0349704911024049
0.034281224181629
0.0336057429069523
0.0329437713117824
0.0322950389489849
0.031659280780499
0.0526333256636998
0.0515800042952336
0.0505477538081849
0.0495361527989551
0.0485447882918985
0.0475732555707635
0.0466211580135042
0.0456881069303959
0.044773721405389
0.0438776281406344
0.0646573281361363
0.0633527456942154
0.0620742651724256
0.0608213648127983
0.0595935332921199
0.0583902695132309
0.0572110824004971
0.056055490699373
0.0549230227799727
0.0538132164445706
0.0852847243412253
0.0835514338420001
0.0818528307518594
0.0801882220010112
0.0785569283801635
0.0769582842632979
0.0753916373359869
0.0738563483291472
0.0723517907581148
0.0708773506669412
0.101336418861587
0.0992663929370881
0.0972378042423667
0.0952498250957239
0.0933016443676196
0.091392467149604
0.0895215144298691
0.0876880227752899
0.0858912440198258
0.0841304449591538
0.109449386504802
0.107203997184842
0.105003570017659
0.102847207141347
0.100734028649155
0.098663172230347
0.0966337928182543
0.0946450622453567
0.0926961689052668
0.0907863174214754
0.082621362429053
0.0809162850323482
0.0792453756125076
0.0776079520910478
0.0760033460287253
0.0744309023527161
0.0728899790892594
0.0713799471016441
0.0699001898334379
0.0684501030568518
0.0727848966656555
0.0712743930649649
0.0697941801772588
0.0683436535157469
0.0669222206806643
0.0655293011174964
0.0641643258800428
0.062826737398221
0.0615159892505099
0.0602315459409519
0.0312541258512837
0.0305889593370319
0.0299371826703902
0.0292985290108403
0.028672736852017
0.028059549914988
0.0274587170436948
0.0268699921024691
0.0262931338755985
0.0257279059689122
0.00894305348868318
0.00873312975941509
0.00852749620534876
0.00832606775122002
0.0081287610205969
0.00793549430188278
0.007746187515008
0.00756076217877766
0.00737914137888129
0.00720124973653746
-0.0182610945665918
-0.0179133450413955
-0.0175724582808066
-0.0172382966412394
-0.0169107252344913
-0.0165896118726385
-0.0162748270140423
-0.015966243710432
-0.015663737555041
-0.0153671866317904
-0.0628310095611084
-0.0615670511054613
-0.0603282883532454
-0.0591142176176094
-0.0579243452874083
-0.0567581876256797
-0.0556152705721518
-0.054495129549708
-0.0533973092747111
-0.0523213635711315
-0.0875571790462137
-0.0857797324527008
-0.0840377632066662
-0.0823305624561432
-0.0806574355276273
-0.0790177016424911
-0.0774106936390679
-0.0758357577002942
-0.0742922530867989
-0.0727795518753336
-0.0715362941425401
-0.0700784612471699
-0.0686497204998258
-0.0672494907689112
-0.0658772025467007
-0.064532297716843
-0.0632142293265163
-0.0619224613631393
-0.0606564685355466
-0.0594157360595435
-0.0849225463344077
-0.0831830174545787
-0.0814782288208367
-0.0798074866813665
-0.0781701111600954
-0.0765654359791512
-0.0749928081868696
-0.0734515878912461
-0.0719411479987142
-0.0704608739581498
-0.0690839803745196
-0.0676607300685892
-0.0662659050162402
-0.0648989377722717
-0.0635592722408234
-0.062246363448363
-0.0609596773212131
-0.0596986904675263
-0.058462889963623
-0.0572517731446007
-0.0723425285222078
-0.0708456206967026
-0.0693786261610834
-0.0679409479137199
-0.0665320008929728
-0.065151211738362
-0.0637980185565115
-0.0624718706917763
-0.061172228501456
-0.0598985631355049
-0.0561515309154233
-0.0549795003468845
-0.0538308975034823
-0.0527052550621672
-0.051602115046027
-0.0505210286373326
-0.0494615559943238
-0.0484232660716599
-0.0474057364444603
-0.046408553135865
-0.0316817642056583
-0.0310059285051162
-0.0303436053211892
-0.0296945254604925
-0.0290584251130592
-0.0284350457446458
-0.0278241339911911
-0.0272254415553873
-0.0266387251053181
-0.0260637461751249
0.00941753884472957
0.00925392848684403
0.00909359314872143
0.00893646671013587
0.00878248437352064
0.00863158263753128
0.0084836992711354
0.0083387732882228
0.00819674492272149
0.0080575556042129
0.0352226385485624
0.0345292791877822
0.0338497908048606
0.0331838957009858
0.0325313217313737
0.0318918021941947
0.0312650757217219
0.030650886173655
0.03004898253258
0.0294591188015171
0.0642919494037303
0.0629995282251345
0.0617329657620458
0.0604917449992656
0.0592753592615585
0.0580833120068491
0.0569151166235555
0.055770296231975
0.0546483834896433
0.0535489204005859
0.095276076110159
0.0933426855649906
0.0914479859285378
0.089591204067053
0.0877715823085272
0.0859883781334383
0.0842408638716847
0.0825283264055814
0.0808500668787935
0.0792054004110934
0.0929169869207862
0.0910233801023388
0.089167679338557
0.0873491273719997
0.0855669820890739
0.0838205162171364
0.0821090170276539
0.0804317860452999
0.0787881387628708
0.0771774043619016
0.0754332149263024
0.0738897442687643
0.0723771854746738
0.0708949211544216
0.069442346264684
0.0680188678614781
0.0666239048581523
0.065256887788224
0.0639172585729506
0.0626044702935578
0.09489787064767
0.0929487836632643
0.0910387380855093
0.0891669543328728
0.0873326684133069
0.0855351316124291
0.0837736101879396
0.0820473850701475
0.0803557515684923
0.0786980190839293
0.0965558120667196
0.0945644800816638
0.0926130518806598
0.0907007308525518
0.0888267363157089
0.0869903031994008
0.0851906817315458
0.0834271371327002
0.0816989493161726
0.0800054125941347
0.0494056679437529
0.0483726422637849
0.0473603611684847
0.0463684108445568
0.0453963857523085
0.0444438884601421
0.043510529482381
0.0425959271203133
0.0416997073064325
0.0408215034517907
0.0364030042580481
0.0356326992889748
0.0348778942177788
0.0341382800531278
0.0334135539806448
0.0327034192393407
0.032007585000529
0.0313257662491537
0.0306576836674903
0.030003063521181
-0.00658124990033304
-0.00647291997608068
-0.00636666234790972
-0.00626243503716228
-0.00616019690739211
-0.00605990764753006
-0.00596152775538705
-0.00586501852149013
-0.00577034201324178
-0.00567746105939104
-0.0138048725321251
-0.013546995254603
-0.0132941781692137
-0.0130463196678203
-0.0128033201770963
-0.0125650821178311
-0.0123315098650663
-0.0121025097090088
-0.0118779898167478
-0.0116578601947115
-0.0499967937911174
-0.0489948141985685
-0.0480127830371107
-0.0470503014370465
-0.0461069785082993
-0.0451824311808178
-0.044276284048169
-0.0433881692142659
-0.0425177261431511
-0.0416646015117985
-0.0815587968140399
-0.079904310272866
-0.0782828340770729
-0.0766937086440338
-0.0751362875844306
-0.0736099374383725
-0.0721140374167906
-0.0706479791480019
-0.0692111664293495
-0.0678030149838023
-0.0722140511191096
-0.0707427991117422
-0.0693009005938414
-0.0678877692072737
-0.0665028303224817
-0.065145520803894
-0.0638152887800305
-0.0625115934181975
-0.0612339047036961
-0.0599817032234444
-0.0642638719307587
-0.0629481861947174
-0.0616587512461777
-0.0603950428624271
-0.059156547306364
-0.057942761116764
-0.0567531909027434
-0.0555873531423319
-0.0544447739850704
-0.0533249890585665
-0.0803676206046773
-0.0787151999810103
-0.0770957802056009
-0.0755087024128613
-0.0739533209150998
-0.0724290029389327
-0.0709351283669717
-0.0694710894846726
-0.0680362907322491
-0.0666301484615497
-0.0774224492123339
-0.0758224246174724
-0.0742543676799741
-0.0727176403529786
-0.0712116173506978
-0.069735685893161
-0.0682892454560666
-0.0668717075256351
-0.0654824953583664
-0.0641210437456026
-0.0243063679577176
-0.0237876307608127
-0.0232792384422975
-0.0227809849353038
-0.0222926682946119
-0.0218140906141939
-0.0213450579464125
-0.020885380222829
-0.0204348711766
-0.0199933482664245
-0.0420509179370432
-0.0411657862143755
-0.0402983414797751
-0.0394482311042275
-0.0386151095111071
-0.0377986380350994
-0.0369984847839492
-0.0362143245029706
-0.035445838442268
-0.0346927142266131
0.00690246171143349
0.00678820898796195
0.00667625658943904
0.00656655790661598
0.00645906726236434
0.00635373989304899
0.00625053193027292
0.00614940038298839
0.00605030311996413
0.0059531988526047
0.0311774000285023
0.0305651176558546
0.0299650968155307
0.0293770919870138
0.0288008625599534
0.0282361727359699
0.0276827914324225
0.0271404921881007
0.0266090530708045
0.0260882565867713
0.0573083937645866
0.0561577760737257
0.0550301920378244
0.0539251810838697
0.052842291849724
0.0517810819999076
0.0507411180450625
0.0497219751650275
0.0487232370354529
0.0477444956578812
0.0718106461803754
0.0703576914182804
0.0689338245927378
0.0675384643483836
0.066171040956029
0.0648309960801288
0.0635177825508997
0.0622308641409943
0.0609697153466429
0.0597338211731726
0.0729706278401849
0.0714875577561251
0.07003418569637
0.0686099182725837
0.0672141739629839
0.0658463828749971
0.0645059865126609
0.0631924375486776
0.0619051996010285
0.0606437470140535
0.10275909643735
0.100658978548359
0.0986009166790911
0.0965840708042109
0.0946076176969788
0.0926707505932467
0.0907726788621877
0.0889126276835976
0.0870898377316585
0.0853035648650255
0.0942077799681189
0.0922739480742907
0.0903788601370978
0.0885217424838096
0.0867018369128383
0.0849184003842884
0.0831707047166921
0.0814580362898107
0.0797796957533867
0.0781349977417101
0.0659603682011252
0.0645974918439141
0.0632619495177851
0.0619531955935955
0.0606706953523259
0.0594139247668553
0.0581823702880939
0.0569755286354034
0.0557929065911953
0.0546340207996554
0.0917312125140919
0.0898346197767514
0.0879760558303131
0.0861547615971441
0.0843699931779538
0.0826210215482055
0.0809071322605748
0.0792276251533783
0.0775818140648159
0.0759690265529489
0.0487860212240667
0.0477621667385337
0.0467588943950092
0.0457757936988719
0.044812462362172
0.0438685061394706
0.0429435386669628
0.0420371813048206
0.0411490629826874
0.0402788200482558
0.0029349526852096
0.00284746230624933
0.00276182854713358
0.00267801493940212
0.00259598574095499
0.00251570592151129
0.00243714114836102
0.00236025777239135
0.00228502281440868
0.0022114039517227
-0.03665823434517
-0.0359333694755781
-0.0352228987681018
-0.0345265341856802
-0.0338439934546377
-0.0331749999494191
-0.0325192825796305
-0.0318765756793393
-0.0312466188985825
-0.0306291570970556
-0.0547766967106043
-0.0536760514038601
-0.0525973209433923
-0.0515400672108424
-0.0505038608525616
-0.049488281104308
-0.0484929156194536
-0.0475173603006249
-0.0465612191347136
-0.0456241040311811
-0.0715620537651969
-0.0701113042368391
-0.068689480575725
-0.06729600479804
-0.065930310481578
-0.0645918425344849
-0.063280056968642
-0.0619944206775784
-0.0607344112188146
-0.0594995166005781
-0.0822870486689009
-0.0806089363887361
-0.0789643089473531
-0.0773524974966202
-0.0757728465668368
-0.074224713799131
-0.0727074696832304
-0.0712204973004615
-0.0697631920718988
-0.0683349615115443
-0.0966282004904704
-0.0946476867506769
-0.092706722218928
-0.0908045171402057
-0.0889402975554443
-0.0871133049855759
-0.0853227961218965
-0.0835680425226304
-0.0818483303155593
-0.0801629599065965
-0.0921213153535883
-0.0902235807501706
-0.0883637556687202
-0.0865410833231572
-0.0847548220634748
-0.0830042450729809
-0.0812886400715978
-0.0796073090250897
-0.0779595678601139
-0.0763447461849638
-0.0749539521041354
-0.0733990804372522
-0.0718752751389786
-0.0703819162905535
-0.06891839637158
-0.0674841200120166
-0.0660785037491394
-0.0647009757893544
-0.0633509757747812
-0.0620279545545022
-0.0588293695458386
-0.0575976930216739
-0.0563906325453956
-0.0552076971793873
-0.0540484058044322
-0.0529122869233114
-0.0517988784683254
-0.0507077276126706
-0.0496383905855833
-0.0485904324911848
-0.0118340201207876
-0.0115599981233911
-0.0112914435223823
-0.0110282479065729
-0.010770305032755
-0.0105175107823166
-0.0102697631187243
-0.0100269620458562
-0.00978900956716955
-0.00955580964568359
-0.00704039919976873
-0.00686330444790095
-0.00668974730094307
-0.00651965791171816
-0.00635296782952866
-0.00618960997220208
-0.00602951859869605
-0.00587262928225196
-0.00571887888408429
-0.00556820552759651
0.0387219139163839
0.0379616990241978
0.0372166952761519
0.0364865980956084
0.0357711089975961
0.035069935466987
0.0343827908391128
0.0337093941827655
0.0330494701855397
0.0324027490414689
0.0788541475766609
0.0772678039657966
0.0757132028968939
0.0741897097489879
0.0726967025931664
0.0712335719387283
0.0697997204844136
0.0683945628746154
0.0670175254604621
0.065668046065682
0.065119905143272
0.0638080263111109
0.0625224032104743
0.0612625109624081
0.0600278351851369
0.0588178717841199
0.0576321267463071
0.0564701159385028
0.0553313649097711
0.0542154086977846
0.0963908020501014
0.0944320683784419
0.092512541226081
0.0906314372288723
0.0887879886889724
0.0869814432615015
0.0852110636474683
0.0834761272928413
0.0817759260936328
0.0801097661068848
0.0903017341110464
0.0884592237361526
0.0866536061336891
0.0848841443501307
0.0831501161697519
0.0814508138198544
0.0797855436818882
0.0781536260083557
0.0765543946453704
0.074987196760774
0.0922979447300598
0.0904065553413016
0.0885530502100504
0.0867366727725036
0.0849566815944618
0.0832123500687088
0.0815029661184532
0.0798278319067061
0.0781862635514532
0.0765775908465427
0.0694661174292168
0.0680347463554272
0.0666320688561957
0.0652575120952994
0.0639105146914396
0.0625905264891156
0.0612970083340993
0.0600294318533869
0.0587872792395627
0.0575700430394672
0.08367715694843
0.0819486264852429
0.0802547502164126
0.0785948364118187
0.0769682071736142
0.075374198159559
0.0738121583118811
0.072281449591566
0.0707814467179553
0.0693115369135642
0.0379384237571516
0.0371405269885381
0.0363586773171152
0.0355925547605365
0.0348418457339337
0.0341062429219612
0.0333854451533915
0.032679157278217
0.0319870900472194
0.0313089599939387
0.00716833455109711
0.00699850919869682
0.00683217285286997
0.00666925638082905
0.00650969203047325
0.00635341340276518
0.00620035542467345
0.00605045432264362
0.00590364759661632
0.0057598739945437
-0.0199912380716452
-0.0196041161813323
-0.0192246445642033
-0.0188526699037084
-0.018488041951283
-0.0181306134649821
-0.0177802401493388
-0.0174367805964293
-0.0171000962281074
-0.0167700512394093
-0.0480461132454115
-0.0470811626182437
-0.0461354240923644
-0.0452085135212865
-0.0443000544426031
-0.0434096779242958
-0.0425370224141011
-0.0416817335918918
-0.0408434642250226
-0.040021874026551
-0.0782739659001388
-0.076684069835423
-0.0751258960330476
-0.0735988106365237
-0.0721021924669207
-0.0706354327692917
-0.0691979349641496
-0.0677891144039311
-0.0664083981343175
-0.065055224660334
-0.0813572462866006
-0.0796961427020175
-0.0780681960581422
-0.0764727440254855
-0.0749091375209927
-0.0733767404430745
-0.0718749294119316
-0.070403093515079
-0.0689606340579516
-0.0675469643195044
-0.0756711873734872
-0.0741184364186402
-0.0725966859280343
-0.0711053168157028
-0.0696437223766733
-0.0682113080393059
-0.0668074911225736
-0.0654317005981992
-0.0640833768575542
-0.0627619714832095
-0.0639993344441274
-0.0626782505797028
-0.0613835436968913
-0.0601146872012102
-0.0588711650288074
-0.0576524714357953
-0.056458110791799
-0.0552875973776299
-0.0541404551870102
-0.0530162177322584
-0.0765656565264963
-0.0749805191509529
-0.0734270556833048
-0.0719046338801044
-0.0704126341406419
-0.0689504492540314
-0.0675174841513426
-0.0661131556627033
-0.0647368922792486
-0.063388133919835
-0.0811740418619111
-0.0794869522491157
-0.0778335928456833
-0.0762132904939956
-0.0746253854965464
-0.0730692313466665
-0.0715441944646318
-0.0700496539390492
-0.0685850012734148
-0.0671496401377416
-0.0121944429166168
-0.0119136616365667
-0.0116384846697453
-0.0113688006810344
-0.011104500558917
-0.0108454773709448
-0.0105916263200929
-0.0103428447019898
-0.0100990318629988
-0.00986008915914161
-0.00216748534059263
-0.00209089177432009
-0.00201582417454782
-0.0019422526470847
-0.00187014789197892
-0.00179948119156581
-0.0017302243987638
-0.00166234992559078
-0.00159583073191882
-0.00153064031445149
0.0421063191253381
0.0412756869709354
0.0404616787170826
0.0396639618384267
0.0388822104638655
0.0381161052435197
0.0373653332183652
0.0366295876924738
0.0359085681078075
0.0352019799215224
0.0623317119641027
0.0610827753048464
0.0598588356378285
0.0586593933596791
0.0574839588630653
0.0563320523368276
0.0552032035701049
0.0540969517603895
0.0530128453254108
0.051950441718791
0.0717412956079482
0.0702939521483894
0.0688755828327063
0.0674856088140898
0.0661234628269285
0.0647885889552398
0.0634804424057309
0.0621984892854006
0.0609422063835887
0.0597110809583823
0.0803492860336021
0.0787191650962287
0.0771216861426769
0.0755561972843628
0.074022059675011
0.0725186472498702
0.0710453464701342
0.0696015560724739
0.0681866868235881
0.0668001612796543
0.110517537223756
0.108261957934428
0.10605155134431
0.103885415555362
0.101762666712032
0.09968243864044
0.0976438824947943
0.0956461664108827
0.0936884751664815
0.0917700098485756
0.0830145664899691
0.0813131651563186
0.0796458669274331
0.078011991259582
0.076410871225014
0.0748418532396968
0.0733042967964979
0.0717975742037051
0.0703210703287755
0.0688741823472112
0.075010724962091
0.0734664439481927
0.0719531410350118
0.0704701983259159
0.0690170102878049
0.0675929835039044
0.0661975364315008
0.064830099164519
0.0634901132008574
0.062177031214369
0.073148232092068
0.0716360739671904
0.0701542716146886
0.0687022197948073
0.0672793253786708
0.0658850071061305
0.0645186953484567
0.0631798318757797
0.0618678696291717
0.060582272497304
0.0398955085204857
0.0390593271508415
0.0382399959601472
0.0374371796443356
0.0366505496124425
0.0358797838524225
0.0351245667996469
0.0343845892080346
0.0336595480237616
0.0329491462615046
-0.0087172766778032
-0.00855937951185481
-0.00840450716642138
-0.00825259787800903
-0.0081035911100269
-0.00795742752815798
-0.00781404897620952
-0.00767339845244486
-0.00753542008640906
-0.00740005911620045
-0.0202522748790344
-0.0198557976211866
-0.0194671071334316
-0.0190860464856097
-0.0187124618766301
-0.0183462025717755
-0.0179871208412745
-0.0176350719000862
-0.0172899138489058
-0.0169515076163265
-0.0462499261427265
-0.0453172018380199
-0.0444029846286043
-0.0435069034436557
-0.0426285946227392
-0.0417677017674887
-0.040923875596234
-0.0400967738015519
-0.039286060910654
-0.0384914081485705
-0.0677221371991568
-0.0663434506066007
-0.064992188428711
-0.063667801503307
-0.0623697516388031
-0.0610975113946539
-0.0598505638662052
-0.058628402473837
-0.0574305307563279
-0.0562564621683483
-0.0771113890005051
-0.0755323922900377
-0.0739848246456898
-0.0724680569515179
-0.070981472659593
-0.0695244675384972
-0.0680964494268483
-0.0666968379917536
-0.0653250644920975
-0.0639805715465558
-0.101555381746133
-0.0994665293524468
-0.0974193073354543
-0.0954128828839993
-0.0934464398268879
-0.0915191782999329
-0.0896303144196509
-0.0877790799634983
-0.085964722056489
-0.0841865028640907
-0.0860965044886095
-0.084313525842421
-0.0825660582694994
-0.0808533912202023
-0.0791748283380054
-0.0775296871754731
-0.0759172989159289
-0.0743370081006782
-0.0727881723616948
-0.0712701621596477
-0.083484006689492
-0.0817449269742463
-0.0800404798433858
-0.0783699723005089
-0.0767327251895251
-0.0751280729176873
-0.073555363184175
-0.0720139567140903
-0.0705032269977894
-0.0690225600354162
-0.0402727307500559
-0.0394100143981548
-0.0385643918523146
-0.0377355203511764
-0.0369230639677913
-0.0361266934727897
-0.0353460862002857
-0.0345809259164644
-0.0338309026908021
-0.0330957127698559
-0.0129917382161611
-0.0126826833386939
-0.0123796341460261
-0.0120824691851844
-0.0117910694102923
-0.011505318134295
-0.0112251009816609
-0.0109503058420191
-0.010680822824733
-0.0104165442143818
-0.00109966963581165
-0.00103116676898551
-0.000963841773896856
-0.000897669416605851
-0.000832624944765659
-0.000768684077878667
-0.000705822997745464
-0.000644018339107433
-0.000583247180478086
-0.000523487035159587
0.0339434460790029
0.0332958870150746
0.0326614981628799
0.0320400184556475
0.0314311920716519
0.0308347683294015
0.0302505015849208
0.0296781511310837
0.0291174810989618
0.0285682603611388
0.0629723946295804
0.0617290883221826
0.0605109007909195
0.0593173326703416
0.0581478946063623
0.0570021070560909
0.055879500091665
0.0547796132080016
0.0537019951343956
0.0526462036498838
0.0812557093799287
0.0796345834436378
0.0780461716434262
0.0764898233158391
0.0749649008348516
0.0734707793511307
0.0720068465365369
0.0705725023337171
0.0691671587107097
0.0677902394204493
0.0962228241693559
0.0942905508431222
0.0923972596967131
0.0905421753161866
0.0887245378197914
0.0869436025473105
0.0851986397556175
0.0834889343203207
0.0818137854433703
0.0801725063665035
0.0935933522357111
0.0917097161275482
0.0898641367686421
0.0880558576776522
0.0862841375263459
0.0845482498364829
0.0828474826827721
0.0811811384017629
0.0795485333065402
0.0779489974071472
0.09767420348087
0.0957023593804349
0.0937703893622617
0.09187750109374
0.0900229181114938
0.0882058795039136
0.0864256396000274
0.084681467664586
0.0829726475992612
0.0812984776497903
0.0684642403009379
0.0670867974564064
0.0657373902273255
0.0644154631335203
0.0631204718260916
0.0618518828646657
0.0606091734990954
0.0593918314555211
0.0581993547267068
0.0570312513665669
0.0695358166026221
0.0681352251826581
0.0667631892113594
0.0654191431911109
0.0641025329543048
0.0628128154365548
0.0615494584544614
0.0603119404878072
0.059099750466105
0.0579123875594085
0.0506753413495638
0.049660686754784
0.0486669242725117
0.047693641788916
0.0467404354506122
0.045806909499241
0.0448926761093471
0.043997355229477
0.0431205744264727
0.0422619687328663
0.00605926141577307
0.0059608550044814
0.00586506453878322
0.00577184316248314
0.0056811449727121
0.00559292500059527
0.00550713919230716
0.00542374439050164
0.00534269831609535
0.00526395955042247
-0.0199802563557299
-0.0195385658538747
-0.0191050126242764
-0.018679428620187
-0.0182616491421346
-0.0178515127712924
-0.0174488613041728
-0.0170535396886482
-0.0166653959612546
-0.0162842811857438
-0.0265872207335569
-0.0260008482063263
-0.0254254558040028
-0.0248608186327939
-0.0243067162863433
-0.0237629327563624
-0.0232292563450418
-0.0227054795792014
-0.0221913991262035
-0.0216868157115169
-0.0727253818927398
-0.0711827732283297
-0.0696702295952161
-0.0681871449511089
-0.0667329253674058
-0.0653069887873112
-0.0639087647888257
-0.0625376943524749
-0.0611932296336875
-0.0598748337397321
-0.0818349769622806
-0.0800904672859026
-0.0783800190733626
-0.0767029465886004
-0.0750585778072077
-0.0734462541426453
-0.0718653301779719
-0.0703151734029213
-0.0687951639562625
-0.0673046943733082
-0.0813744239287075
-0.0796228712874001
-0.0779054798951506
-0.0762215622030809
-0.0745704444149586
-0.0729514662126709
-0.0713639804871926
-0.0698073530749417
-0.0682809624994141
-0.0667841997179925
-0.0949566190951847
-0.0929097139401369
-0.0909028417614781
-0.0889351979830737
-0.0870059941271242
-0.0851144574927716
-0.0832598308411487
-0.0814413720867266
-0.079658353994847
-0.0779100638852999
-0.0687212009518152
-0.067193513936787
-0.0656954347852556
-0.0642263674258183
-0.0627857277214501
-0.0613729432314667
-0.0599874529782367
-0.058628707218574
-0.0572961672197048
-0.0559893050397244
-0.040304459628163
-0.0393426739677025
-0.0383991358843545
-0.0374734764935081
-0.0365653343080421
-0.0356743550910741
-0.0348001917116623
-0.033942504003396
-0.0331009586258215
-0.032275228928647
-0.0236697333802631
-0.0230344830599316
-0.0224109092099845
-0.0217987745017343
-0.0211978463802014
-0.0206078969693939
-0.0200287029794843
-0.0194600456158547
-0.0189017104899518
-0.0183534875319458
0.00296803746483665
0.0030705963171167
0.00317217466156006
0.00327279585859053
0.00337248276627644
0.00347125774957302
0.00356914268937825
0.00366615899139955
0.00376232759484463
0.00385766898092843
0.0144137730999203
0.0142930588504173
0.0141758681236306
0.0140621339405156
0.0139517906181155
0.0138447737427922
0.0137410201439954
0.0136404678685533
0.013543056155469
0.0134487254112221
0.0499941964526895
0.0491548040951004
0.0483333512896866
0.0475294827162394
0.0467428501084228
0.0459731121118105
0.0452199341447681
0.0444829882621098
0.043761953021483
0.0430565133524263
0.0648724866271335
0.063735945010917
0.0626233240751466
0.0615341485899332
0.0604679527682741
0.0594242800762901
0.0584026830472597
0.0574027230993739
0.0564239703571321
0.0554660034763126
0.0937161328917115
0.0919951636211493
0.0903098428173932
0.0886594605212165
0.0870433209013104
0.085460741970806
0.0839110553094704
0.0823936057914585
0.0809077513185139
0.0794528625584991
0.114201951633956
0.112065601294779
0.109973243318771
0.107924000561914
0.105917013342212
0.103951439089528
0.102026452002445
0.100141242711972
0.0982950179519939
0.0964870002363005
0.10582209942451
0.103860560019754
0.101939542957663
0.100058239782355
0.0982158581170207
0.0964116213414599
0.0946447682760496
0.0929145528720596
0.0912202439081575
0.0895611246929704
0.0846079960800878
0.0830853967158891
0.0815945557720053
0.0801348390898529
0.0787056250952958
0.0773063045461218
0.0759362802845569
0.0745949669947397
0.0732817909650656
0.0719961898552626
0.100551118277938
0.0987078512548667
0.0969027693829574
0.0951351093128174
0.09340412285475
0.0917090766747535
0.0900492519966285
0.0884239443100352
0.0868324630844075
0.0852741314886032
0.0402895003977104
0.0396863905827942
0.0390966499868206
0.0385200099342438
0.0379562070086976
0.0374049829471108
0.0368660845359567
0.0363392635095625
0.0358242764504926
0.0353208846919113
0.0201168672909748
0.0199375625215907
0.019763128871487
0.0195934662715516
0.0194284765333261
0.0192680633107738
0.0191121320628547
0.018960590016837
0.0188133461323705
0.0186703110662698
-0.00920436464157426
-0.00877066389126213
-0.00834439137934773
-0.00792540276361819
-0.00751355671460807
-0.00710871485581244
-0.00671074170510444
-0.00631950461729147
-0.00593487372783308
-0.00555672189764778
-0.0335408815828071
-0.0325940235724396
-0.0316649123312569
-0.0307531987758658
-0.0298585409342937
-0.0289806038041114
-0.0281190592133669
-0.0272735856842861
-0.0264438682997028
-0.025629598572122
-0.0479669438197217
-0.0467083743382322
-0.0454738563227579
-0.0442629161931407
-0.0430750899730636
-0.0419099230981779
-0.040766970228022
-0.0396457950617144
-0.038545970157303
-0.0374670767547176
-0.0949108881709986
-0.0926733480254835
-0.0904795345705001
-0.0883285827733982
-0.0862196450348609
-0.084151890840257
-0.0821245064179461
-0.080136694404402
-0.0781876735160054
-0.0762766782274085
-0.0883902574626401
-0.0862663404083932
-0.0841839822333075
-0.0821423627592885
-0.0801406783436907
-0.0781781415484541
-0.0762539808158404
-0.0743674401506205
-0.0725177788086206
-0.0707042709914667
-0.08385725862124
-0.0818078540611733
-0.0797986379549442
-0.077828819027058
-0.075897621956825
-0.0740042870589317
-0.0721480699703552
-0.070328241343546
-0.0685440865457156
-0.0667949053641319
-0.0483800832627503
-0.0470411513285853
-0.0457283247232896
-0.0444410949028002
-0.0431789636191722
-0.0419414427141334
-0.0407280539167445
-0.0395383286450874
-0.0383718078119033
-0.0372280416340942
-0.0344238664996261
-0.0333587921767116
-0.0323144867826883
-0.0312905497071254
-0.0302865884709398
-0.0293022185630534
-0.0283370632802962
-0.0273907535704963
-0.0264629278786792
-0.0255532319963354
-0.00969548451639568
-0.00912781198108714
-0.00857110936506622
-0.00802517301000538
-0.00748980344204497
-0.00696480528719601
-0.00644998718841627
-0.00594516172433757
-0.00545014532957921
-0.00496475821665321
0.0192559244995296
0.0192358133476613
0.0192163318836549
0.0191974509971065
0.0191791420581202
0.0191613769087855
0.019144127854843
0.0191273676575401
0.0191110695256604
0.019095207107739
0.0583560251144863
0.0575357982338165
0.0567320440518975
0.0559444161175939
0.055172574818295
0.0544161872444073
0.0536749270565693
0.0529484743555466
0.0522365155547417
0.0515387432552714
0.0675442159088728
0.0665317888017238
0.0655395088876407
0.0645669555857022
0.0636137166492912
0.0626793880008449
0.0617635735699107
0.0608658851344792
0.0599859421654916
0.0591233716744703
0.0773869372429061
0.0761662874411542
0.0749697746254601
0.0737968979483909
0.0726471665169441
0.07152009919505
0.0704152244100289
0.069332079962944
0.0682702128427639
0.0672291790442365
0.100685115856134
0.0989776864647602
0.0973039549999779
0.0956632292695687
0.094054830878731
0.0924780949558421
0.090932369883749
0.0894170170364035
0.087931410520822
0.08647493692418
0.107016051000208
0.105165688834346
0.103351704797628
0.101573352979965
0.0998299023605451
0.098120636511883
0.0964448533098263
0.0948018646493232
0.0931909961659372
0.0916115869629035
0.103103183373396
0.101317440258862
0.0995666017602908
0.0978499513938615
0.0961667869952159
0.09451642043501
0.0928981773401549
0.0913113968206556
0.0897554312019047
0.0882296457623521
0.106617437148426
0.104742538578313
0.10290414880995
0.101101519507569
0.0993339173113945
0.0976006235401243
0.0959009338993759
0.094234158195972
0.092599620057932
0.0909966566600939
0.0688889245025575
0.0677681540744501
0.0666686235594653
0.0655898899296208
0.0645315190473532
0.0634930854897728
0.0624741723764295
0.0614743712005392
0.0604932816635682
0.0595305115131559
0.0580922146395348
0.0571750538018012
0.0562748798503296
0.0553913352032449
0.0545240694808875
0.053672739363865
0.0528370084539027
0.0520165471375176
0.0512110324523896
0.0504201479564212
0.044600304259788
0.0439411428433001
0.0432936310855787
0.0426575186862941
0.042032560422518
0.041418516049248
0.040815150201901
0.0402222323007759
0.0396395364573969
0.0390668413827537
-0.014656695682298
-0.0141202490587435
-0.0135962484964356
-0.0130844622316939
-0.0125846630435564
-0.0120966281608794
-0.0116201391713311
-0.0111549819321777
-0.0107009464828884
-0.0102578269594797
-0.0312848712782809
-0.0304230659893747
-0.0295803867329454
-0.028756467394766
-0.0279509490700516
-0.0271634799173057
-0.0263937150151037
-0.0256413162217584
-0.0249059520377788
-0.0241872974711264
-0.0597407494142477
-0.0583113269170727
-0.0569125510619592
-0.0555438245550377
-0.0542045619158742
-0.0528941892393444
-0.0516121439622896
-0.0503578746348214
-0.0491308406962609
-0.0479305122555473
-0.0753423414284953
-0.0736078671325
-0.0719102982242319
-0.0702489111816877
-0.0686229968025334
-0.0670318599159767
-0.0654748191004302
-0.0639512064068466
-0.0624603670875725
-0.061001659330687
-0.055281306290432
-0.0539729956514137
-0.0526932048697581
-0.0514413764976762
-0.0502169640691328
-0.0490194318786568
-0.0478482547646077
-0.0467029178967913
-0.045582916568323
-0.0444877559917085
-0.077737615791083
-0.0759871217727
-0.0742741220715004
-0.0725978784351504
-0.0709576671940884
-0.0693527789685309
-0.067782518381323
-0.0662462037765721
-0.0647431669439342
-0.0632727528484232
-0.0716125342599021
-0.0700049997537651
-0.0684322109196014
-0.0668934827175764
-0.0653881436136441
-0.0639155353083041
-0.0624750124707809
-0.0610659424785709
-0.0596877051621973
-0.0583396925551121
-0.0506560226095161
-0.0494971706676104
-0.0483641789054996
-0.0472565379161036
-0.0461737482752422
-0.0451153203410932
-0.0440807740576741
-0.0430696387622778
-0.042081452996797
-0.0411157643228339
-0.0212730086710078
-0.0207384216098347
-0.0202172730999415
-0.0197092998437807
-0.0192142435969807
-0.0187318510666579
-0.0182618738117757
-0.0178040681455407
-0.0173581950397637
-0.0169240200311673
0.015974789808741
0.0157204982265355
0.0154685090965341
0.0152187734503215
0.0149712435162872
0.0147258726960366
0.0144826155412403
0.01424142773093
0.0140022660492249
0.0137650883634581
0.0315806357273871
0.0309772651215212
0.0303831639111003
0.029798146198587
0.0292220300238331
0.0286546372853937
0.0280957936634021
0.0275453285439404
0.0270030749449077
0.026468869443331
0.077442706655189
0.0758683743367001
0.0743227489404124
0.0728052586486001
0.0713153432980622
0.0698524541468011
0.0684160536453486
0.0670056152126239
0.0656206230162635
0.0642605717572931
0.0808192910137659
0.0791408154355935
0.0774931673312942
0.0758757348612988
0.0742879186372321
0.0727291314723804
0.0711987981371198
0.0696963551192145
0.0682212503888735
0.0667729431684805
0.0995650397397547
0.0974673636498355
0.0954089647010612
0.0933890646011051
0.0914069008311298
0.0894617263295299
0.0875528091819682
0.0856794323176011
0.083840893211331
0.0820365035920005
0.0878394433922676
0.0859460804753578
0.0840879921721029
0.0822644823721497
0.080474869085851
0.0787184841608166
0.0769946730040729
0.0753027943098097
0.0736422197924878
0.0720123339253149
0.0925415992090635
0.090517650788648
0.088531697118988
0.086582989895426
0.0846707959660726
0.0827943970274401
0.0809530893261758
0.0791461833667189
0.0773730036247873
0.0756328882665631
0.0879045504505598
0.0859420566135487
0.0840164562472818
0.082127025051312
0.0802730533837845
0.0784538459667488
0.0766687215973469
0.0749170128647556
0.0731980658727807
0.07151123996797
0.0541324087490516
0.0528302844281168
0.0515519853323418
0.0502970499872646
0.0490650263046852
0.0478554713932375
0.0466679513727506
0.0455020411922717
0.044357324451731
0.0432333932271831
0.0291369313061978
0.0283197335322711
0.0275168161912553
0.0267279100331841
0.0259527513322624
0.0251910817745227
0.0244426483477369
0.0237072032334744
0.0229845037013021
0.0222743120051589
0.0070611257052029
0.00667281705612766
0.00629037687277645
0.0059137052715208
0.00554270448654393
0.00517727882548513
0.00481733462595457
0.00446278021295754
0.00411352585707192
0.0037694837335458
-0.0231591638575139
-0.0229479514498188
-0.02274268795232
-0.0225432361193079
-0.0223494613498794
-0.0221612316371846
-0.0219784175185929
-0.021800892026949
-0.0216285306427402
-0.021461211247285
-0.0640420044751977
-0.0630081821038608
-0.0619965851297408
-0.0610067503995424
-0.0600382239436037
-0.0590905607943704
-0.0581633248084863
-0.0572560884924762
-0.0563684328319081
-0.0554999471239572
-0.0697584026188718
-0.0686173414937858
-0.0675004647350157
-0.0664072694991997
-0.0653372629418367
-0.0642899620194779
-0.0632648932958837
-0.0622615927520638
-0.0612796056001024
-0.0603184861007229
-0.0754145269509987
-0.0741650899246711
-0.0729418150806946
-0.071744159735454
-0.0705715920225778
-0.0694235906787668
-0.068299644833905
-0.0671992538053594
-0.0661219268964128
-0.0650671831986998
-0.0815394160102763
-0.0801695866988563
-0.0788281362296299
-0.07751447753534
-0.0762280352750473
-0.0749682456017347
-0.0737345559345783
-0.072526424735738
-0.0713433212916268
-0.0701847254985459
-0.115974949619021
-0.113901897322298
-0.111871105314187
-0.10988170942364
-0.107932862768521
-0.106023735411913
-0.104153514025253
-0.102321401558218
-0.100526616915214
-0.0987683946382933
-0.0690041697914303
-0.0678916905164666
-0.066802063553224
-0.0657348126906427
-0.0646894712680162
-0.0636655819859673
-0.0626626967212065
-0.0616803763449614
-0.0607181905450407
-0.059775717651446
-0.0524014222495062
-0.0516293910618959
-0.0508732112953076
-0.0501325470261005
-0.0494070690946753
-0.048696454972049
-0.0480003886291058
-0.0473185604084474
-0.0466506668987865
-0.0459964108118349
-0.0427336475090563
-0.0421595459544086
-0.0415971498599408
-0.0410462067270032
-0.0405064691706158
-0.0399776948189086
-0.0394596462146009
-0.0389520907183911
-0.0384548004142875
-0.0379675520168252
-0.0272377620342059
-0.026980117837299
-0.0267276664397631
-0.0264802861824762
-0.0262378579199414
-0.0260002649715947
-0.0257673930740552
-0.0255391303343284
-0.0253153671839232
-0.0250959963338673
0.0186661075156831
0.0179842983516618
0.0173162711067647
0.0166617676105414
0.0160205347599724
0.0153923244166911
0.0147768933063066
0.0141740029197521
0.0135834194166087
0.0130049135304073
0.0391932437349798
0.0380897493596493
0.0370086478216507
0.0359495080415613
0.0349119074519226
0.033895431825778
0.0328996751086432
0.0319242392538808
0.0309687340613429
0.0300327770193203
0.0472177341485445
0.0459486724642844
0.0447054824095705
0.0434876624035585
0.0422947207757431
0.0411261755667152
0.0399815543329094
0.0388603939553107
0.0377622404519649
0.0366866487942943
0.0723279588905736
0.0705439525067959
0.0687962792136894
0.0670842273975261
0.0654070995456255
0.0637642119635018
0.0621548944976613
0.0605784902639943
0.0590343553815877
0.0575218587119117
0.0786940009172881
0.0767785406366794
0.0749021929470874
0.0730641895769253
0.0712637774810059
0.0695002185353637
0.0677727892382087
0.0660807804168719
0.0644234969406412
0.0628002574393722
0.0873039968093892
0.0852119392750676
0.0831626665955678
0.0811553359595063
0.0791891212668148
0.077263212794076
0.0753768168665516
0.0735291555368143
0.0717194662697977
0.0699470016341888
0.0678776713835294
0.0661843064145504
0.0645258746483108
0.0629016888355078
0.0613110753233332
0.0597533737833
0.058227936944526
0.0567341303323801
0.0552713320123424
0.0538389323390636
0.0378842248313696
0.0368091578304011
0.0357567616946124
0.0347265927479032
0.0337182160377782
0.03273120516082
0.0317651420916665
0.0308196170154567
0.0298942281635934
0.0289885816528574
0.0354481888779805
0.0344302861897638
0.0334340036710117
0.0324589172509278
0.0315046111904191
0.0305706779155681
0.0296567178544809
0.0287623392774083
0.0278871581400679
0.0270307979301432
0.00502137420830451
0.00463556906868412
0.00425881319985422
0.00389093219784442
0.00353175499932235
0.00318111381509567
0.00283884406493584
0.00250478431372336
0.00217877620890228
0.0018606644191852
-0.0364871196229064
-0.0360101307913183
-0.0355412993290773
-0.0350804574363597
-0.0346274408125851
-0.0341820885859807
-0.0337442432445236
-0.033313750568249
-0.0328904595629123
-0.0324742223949581
-0.0574791463624553
-0.0565555967563398
-0.0556491022664893
-0.0547593188622013
-0.0538859095310631
-0.0530285441379768
-0.0521868992870065
-0.0513606581859474
-0.050549510513628
-0.0497531522898189
-0.0814376361478608
-0.080004413551352
-0.078598424885433
-0.0772191242923181
-0.0758659769620316
-0.0745384589107196
-0.0732360567633901
-0.0719582675409693
-0.0707045984516395
-0.0694745666862975
-0.0979160884093062
-0.0961241335861267
-0.0943665891145198
-0.0926427672469625
-0.0909519941133734
-0.0892936094427128
-0.0876669662901559
-0.0860714307697172
-0.0845063817921989
-0.0829712108083829
-0.121211794746548
-0.118919805358935
-0.116672247446658
-0.114468234516847
-0.112306897919668
-0.11018738649055
-0.108108866199522
-0.10607051980759
-0.104071546529951
-0.102111161705974
-0.0846500048054466
-0.0830830449475677
-0.0815460382441362
-0.0800383886658462
-0.0785595122077485
-0.0771088366477954
-0.0756858013101649
-0.0742898568333548
-0.0729204649428894
-0.0715770982285644
-0.0963802714958959
-0.0945519374450505
-0.0927588257740162
-0.091000236384458
-0.0892754832733456
-0.0875838942500149
-0.085924810658879
-0.0842975871076739
-0.0827015912011504
-0.0811362032800815
-0.0666078917344297
-0.0653682637768167
-0.0641521282358806
-0.0629590203383046
-0.0617884846892256
-0.0606400750836098
-0.0595133543213908
-0.0584078940263009
-0.0573232744683416
-0.0562590843897812
-0.0304804441359661
-0.0299629659124285
-0.0294545849784473
-0.0289551249396229
-0.0284644130020908
-0.0279822798994527
-0.0275085598211611
-0.0270430903423371
-0.0265857123550042
-0.0261362700006771
0.00236913352107671
0.00222785632706746
0.00209060565924979
0.0019572951037663
0.00182783991263236
0.00170215697146503
0.00158016476786571
0.00146178336041558
0.00134693434829991
0.00123554084155053
0.00289510880376653
0.00275416634233849
0.00261718266013133
0.00248407214299817
0.00235475083704806
0.0022291364164726
0.0021071481520103
0.00198870688003261
0.00187373497226062
0.00176215630606258
0.0436869744984065
0.0427202870616021
0.041774017727688
0.0408477517410688
0.039941082598844
0.03905361188672
0.0381849491182287
0.0373347115771452
0.0365025241630477
0.0356880192399807
0.056140435678536
0.0549246078654519
0.0537341208106561
0.0525684611875246
0.0514271259029133
0.0503096218934243
0.0492154659257427
0.0481441844009627
0.04709531316281
0.0460683973097176
0.100593700072297
0.0984709939062842
0.0963917141443726
0.0943549861441344
0.0923599527313392
0.0904057738514616
0.0884916262281461
0.0866167030285059
0.0847802135350904
0.0829813828244426
0.0892553423678635
0.087364831316652
0.085513042725859
0.0836991959230886
0.0819225258330611
0.0801822826664704
0.0784777316150755
0.0768081525528643
0.0751728397431997
0.0735711015518241
0.082447070127694
0.0806963440017654
0.0789814845067536
0.0773017680881409
0.0756564856538127
0.0740449422855605
0.0724664569563327
0.0709203622531458
0.0694060041055131
0.0679227415193182
0.0570275563358482
0.0557981806915784
0.0545941796690741
0.0534150393830632
0.0522602562245353
0.0511293366558814
0.0500217970101549
0.0489371632942923
0.0478749709963271
0.0468347648963849
0.0501471203172024
0.0490607718106979
0.0479968746057615
0.0469549733521788
0.0459346218116927
0.044935382676373
0.0439568273905948
0.0429985359766007
0.0420600968635192
0.041141106719806
0.0342920641260349
0.0335327499863673
0.0327892819523043
0.0320613367799769
0.0313485977011645
0.030650754294328
0.029967502358188
0.0292985437878563
0.028643586453418
0.0280023440809494
0.0269694174750299
0.0263630739289624
0.0257694543004838
0.0251882979155269
0.024619349329333
0.0240623582223449
0.0235170792981503
0.0229832721834828
0.0224607013301945
0.0219491359192059
-0.0225621016058781
-0.0221501214810846
-0.021745856649158
-0.0213491593652382
-0.0209598848185948
-0.0205778910735397
-0.0202030390115073
-0.0198351922743321
-0.0194742172086375
-0.019119982811354
-0.0510256498327912
-0.0500233257690201
-0.0490405969666625
-0.0480770782546394
-0.047132392140302
-0.0462061686554982
-0.045298045205735
-0.0444076664223729
-0.0435346840177697
-0.0426787566433244
-0.0666381222297598
-0.0653069403484547
-0.0640020035667117
-0.0627227937579544
-0.0614688031295643
-0.0602395340159028
-0.0590344986754854
-0.0578532190922019
-0.0566952267805441
-0.0555600625947044
-0.0853310221066881
-0.0836070603024428
-0.0819172737330121
-0.0802609857523144
-0.0786375332155114
-0.0770462662087343
-0.0754865477842266
-0.0739577537007889
-0.0724592721694108
-0.0709905036040084
-0.0881251451141267
-0.0863332808406359
-0.0845770218568607
-0.0828556628179324
-0.0811685124517503
-0.0795148932773291
-0.0778941413287928
-0.0763056058848761
-0.0747486492038654
-0.0732226462638206
-0.07995521267169
-0.0783206141273158
-0.076718543767976
-0.0751483575431049
-0.073609424247195
-0.0721011252627424
-0.0706228543083558
-0.0691740171918944
-0.0677540315685423
-0.0663623267037536
-0.0752741975017681
-0.0737267335278293
-0.0722101212404347
-0.0707237498804183
-0.0692670208664605
-0.0678393475514341
-0.0664401549836278
-0.0650688796727366
-0.0637249693605462
-0.0624078827962169
-0.0496128908189668
-0.0485837055420948
-0.0475750644138735
-0.0465865623063682
-0.0456178021561975
-0.0446683948031943
-0.0437379588322759
-0.042826120418507
-0.0419325131752455
-0.0410567780053377
-0.0333800657819108
-0.0326788042246875
-0.031991582387116
-0.0313181247635193
-0.0306581613200301
-0.0300114273851477
-0.0293776635424745
-0.0287566155256069
-0.0281480341151248
-0.027551675037655
-0.00859869136397862
-0.00840261754384208
-0.00821052603182615
-0.00802234186023476
-0.0078379915226634
-0.007657402944794
-0.00748050545577428
-0.00730722976018683
-0.00713750791056178
-0.0069712732804561
0.0383820701096749
0.0376151248910812
0.036863424526576
0.0361266603782617
0.0354045300181092
0.034696737103717
0.0340029912565054
0.033323007942391
0.0326565083548189
0.0320032193001296
0.0554158681956647
0.0542951191744283
0.0531966616479522
0.0521200467107086
0.051064834471326
0.0500305938722256
0.0490169025128306
0.0480233464763344
0.0470495201599253
0.0460950261084019
0.0651616068784904
0.0638345756044973
0.062533937572308
0.0612591624445713
0.0600097305254312
0.058785132547575
0.0575848694635361
0.0564084522411861
0.0552554016632847
0.054125248131065
0.0810558478808439
0.0793953352351799
0.0777678696387447
0.0761727883663283
0.0746094419803249
0.0730771940648438
0.0715754209651216
0.0701035115321584
0.068660866872456
0.0672469001027505
0.116376466000416
0.113982581310767
0.111636407994645
0.109336990988915
0.107083394362645
0.104874700934301
0.102710011896587
0.100588446448773
0.098509141436411
0.0964712509982188
0.093691820766173
0.0917503228143115
0.0898474813112244
0.0879825225842676
0.0861546884634521
0.0843632359712245
0.082607437018428
0.0808865781063535
0.0791999600347619
0.0775468976157221
0.0535496360434973
0.0524204113838547
0.0513135876921513
0.0502287164128195
0.0491653579890894
0.0481230816828262
0.0471014653979953
0.0461000955076329
0.0451185666842857
0.0441564817338413
0.0604850581105225
0.0592066353036422
0.0579535978215198
0.0567254379036815
0.0555216579705409
0.0543417704195868
0.0531852974256584
0.0520517707452193
0.0509407315245252
0.0498517301116657
0.048620524409607
0.0475776434556732
0.046555437539693
0.0455534933532888
0.044571405878056
0.043608778219598
0.0426652214448495
0.0417403544226733
0.0408338036676259
0.0399452031868641
0.0108802917360347
0.0106044944693302
0.0103340261429743
0.0100687802520181
0.00980865244393847
0.00955354047542301
0.0093033441700161
0.0090579653765932
0.00881730792868929
0.00858127760462501
-0.0290544777427257
-0.0285147463256958
-0.0279860046330818
-0.0274680330432382
-0.0269606163058622
-0.0264635434547529
-0.0259766077222725
-0.0254996064555399
-0.0250323410343007
-0.0245746167904315
-0.0457110511901213
-0.0448293548855734
-0.0439654940655299
-0.043119112256278
-0.0422898600938293
-0.0414773951818628
-0.0406813819525169
-0.0399014915299905
-0.0391374015968271
-0.0383887962629181
-0.0919336509314856
-0.0901023942500334
-0.0883079799901214
-0.0865496720190961
-0.0848267489079859
-0.0831385036375387
-0.0814842433101788
-0.0798632888676813
-0.0782749748145335
-0.076718648946791
-0.0735660958009259
-0.0721052066423251
-0.0706737584470236
-0.0692711629074285
-0.0678968434644105
-0.0665502350724712
-0.0652307839695929
-0.0639379474516897
-0.0626711936515765
-0.0614300013223481
-0.078980953806175
-0.0774046390558567
-0.0758600830405296
-0.0743466511578141
-0.072863721480676
-0.0714106845040412
-0.069986942896465
-0.0685919112567763
-0.0672250158755787
-0.0658856945015351
-0.0946692600905674
-0.0927664832808546
-0.0909020073288449
-0.0890750669996443
-0.0872849123470836
-0.0855308084080377
-0.0838120349028699
-0.0821278859418531
-0.0804776697374656
-0.0788607083224573
-0.0724560493062611
-0.0710024327641285
-0.0695781397251185
-0.0681825842864896
-0.0668151922486171
-0.0654754008810094
-0.0641626586930268
-0.0628764252091738
-0.0616161707488967
-0.0603813762107688
-0.0393937388296575
-0.0386137903594683
-0.0378496918537365
-0.0371011264908372
-0.0363677837718033
-0.0356493593939771
-0.0349455551271696
-0.0342560786923176
-0.0335806436425408
-0.0329189692465963
-0.038836881199483
-0.038067303978611
-0.0373133721882262
-0.036574773045027
-0.0358512000084463
-0.0351423526558854
-0.03444793656044
-0.0337676631710746
-0.0331012496951892
-0.0324484189835363
0.00281361740617569
0.00273033482969254
0.00264847242093857
0.00256800220449271
0.00248889677606812
0.0024111292910014
0.00233467345297633
0.00225950350295001
0.00218559420832598
0.00211292085233872
0.0240360527116916
0.0235148927223374
0.0230039210113588
0.0225029346250967
0.0220117346794169
0.021530126278213
0.0210579184335646
0.020594923987467
0.0201409595351603
0.0196958453499523
0.0520139193224392
0.0509145174614964
0.0498368858881015
0.0487805905134309
0.0477452059395382
0.0467303152854459
0.0457355100167049
0.0447603897783679
0.0438045622312995
0.042867642891764
0.0978971323547047
0.0958499822403507
0.093843585624823
0.0918771295330529
0.0899498172568869
0.0880608680296309
0.0862095167071324
0.0843950134551985
0.0826166234433003
0.0808736265443883
0.0957350648379052
0.0937210734082896
0.0917471979207818
0.0898126384254283
0.0879166109774001
0.0860583473167704
0.0842370945547106
0.0824521148659656
0.0807026851874575
0.0789880969229504
0.0771537018951296
0.0755098831283068
0.0738988007611248
0.0723198024888774
0.0707722490579936
0.069255514004908
0.0677689834001622
0.0663120555976064
0.0648841409886423
0.0634846617613647
0.074803057814071
0.0731986184120927
0.0716261555990823
0.0700850324690734
0.0685746248580585
0.0670943210890531
0.0656435217222384
0.0642216393101318
0.0628280981576239
0.0614623340868281
0.062175624110143
0.0608217043380872
0.0594947777193191
0.0581943070757021
0.0569197659754614
0.0556706385181442
0.0544464191238916
0.0532466123269355
0.0520707325732044
0.0509183040220034
0.0640687223049614
0.0626690711666509
0.0612973585183791
0.0599530284751246
0.0586355362711775
0.0573443480376579
0.0560789405844648
0.0548388011866159
0.0536234273748377
0.0524323267303544
0.0493842391050912
0.0482788024407093
0.0471954483917241
0.0461337381789892
0.0450932417995809
0.0440735378511867
0.0430742133599846
0.0420948636119896
0.0411350919877513
0.0401945098003758
-0.00520856866537933
-0.00520004600351598
-0.00519170283418724
-0.00518353324185661
-0.00517553142902827
-0.00516769171395381
-0.00516000852840648
-0.00515247641549088
-0.00514509002748298
-0.00513784412373397
-0.0300448276888616
-0.0295271116858924
-0.0290197423191749
-0.0285225106389255
-0.0280352118745313
-0.0275576453510329
-0.0270896144072985
-0.0266309263157929
-0.0261813922039842
-0.0257408269773141
-0.0429762763504673
-0.0421909324354619
-0.0414212721958425
-0.0406669801641701
-0.0399277471829738
-0.0392032702786089
-0.0384932525376485
-0.0377974029857295
-0.0371154364688362
-0.0364470735369498
-0.0677584230977661
-0.06646114444899
-0.0651897786529414
-0.0639438060624737
-0.0627227174241796
-0.0615260136705533
-0.0603532057163267
-0.0592038142588756
-0.0580773695826018
-0.0569734113672489
-0.0808123170246908
-0.0792411135979663
-0.0777012941983113
-0.0761922300730458
-0.0747133050454654
-0.0732639152633734
-0.0718434689526202
-0.070451386175586
-0.0690870985944834
-0.0677500492393914
-0.0910702709417155
-0.0892811477354165
-0.0875277627389792
-0.0858094004313745
-0.0841253596029716
-0.0824749530693385
-0.0808575073907587
-0.0792723625973739
-0.0777188719198101
-0.0761964015251948
-0.0954431251694103
-0.0935557016391861
-0.0917059802454414
-0.0898932064558604
-0.0881166408297585
-0.0863755587162558
-0.0846692499585124
-0.0829970186038533
-0.0813581826197254
-0.0797520736152855
-0.0851558647323039
-0.0834702131322942
-0.0818182252114159
-0.0801992273033694
-0.0786125592162552
-0.0770575739631081
-0.0755336374978075
-0.0740401284562839
-0.0725764379028888
-0.0711419690818413
-0.0665218718850475
-0.0652099957977956
-0.0639243031592898
-0.0626642698795923
-0.0614293823518484
-0.0602191372426244
-0.0590330412864581
-0.0578706110845175
-0.0567313729072847
-0.0556148625011801
-0.0338199860708741
-0.0331719358720157
-0.0325367830225272
-0.0319142689121055
-0.0313041401043481
-0.0307061482332909
-0.0301200499020258
-0.0295456065833353
-0.0289825845223195
-0.0284307546409739
-0.0133807632177056
-0.0131480840091118
-0.0129199843688106
-0.0126963718806863
-0.0124771559790169
-0.0122622479115027
-0.0120515607030232
-0.0118450091201012
-0.0116425096361166
-0.0114439803971624
0.0257252542253923
0.0251581075036427
0.024602395584262
0.0240578910309619
0.0235243709533943
0.0230016169161882
0.0224894148498151
0.0219875549632587
0.0214958316583864
0.0210140434460779
0.0457028471163792
0.0447245463332582
0.0437659225031215
0.0428265836281572
0.0419061455470562
0.0410042317782526
0.0401204733662848
0.0392545087312346
0.0384059835211783
0.0375745504675908
0.0638155742739563
0.0624626728402493
0.0611369627237064
0.059837901937291
0.0585649593295354
0.0573176143677632
0.0560953569256668
0.0548976870751439
0.0537241148822858
0.0525741602074419
0.0936486408459754
0.0916793979408332
0.0897497024537763
0.0878587657532712
0.086005814975227
0.0841900927075852
0.0824108566812249
0.0806673794670481
0.0789589481791193
0.0772848641837474
0.103132619940819
0.100961686080302
0.0988343635969091
0.0967497828651265
0.0947070916458355
0.09270545473853
0.0907440536404724
0.0888220862126836
0.0869387663525991
0.085093323673286
0.112946567850461
0.110566571362106
0.108234401023406
0.105949103215959
0.103709743386613
0.10151540566609
0.0993651924952346
0.0972582242587432
0.0951936389262222
0.0931705917004138
0.0849212028282995
0.0831072384064342
0.0813298065657584
0.0795881794074784
0.0778816435830354
0.0762095000030545
0.0745710635520886
0.0729656628090662
0.0713926397733555
0.0698513495962736
0.0395610280968803
0.0386713094422557
0.0377996580750857
0.0369457149666168
0.0361091282606765
0.0352895531301485
0.034486651636362
0.0337000925912481
0.0329295514222867
0.0321747100401364
0.0375061659651639
0.0366573423069756
0.0358257924325844
0.0350111731758993
0.034213148225529
0.0334313879876529
0.0326655694515985
0.0319153760581372
0.0311804975703929
0.0304606299473491
-0.0181113318323423
-0.0178208022204789
-0.0175357757471222
-0.0172561407198906
-0.0169817876887635
-0.0167126094012762
-0.016448500758603
-0.0161893587725181
-0.015935082523221
-0.015685573118013
-0.0255947821217113
-0.0251463609297584
-0.0247065874634735
-0.0242752873509833
-0.0238522897165936
-0.0234374271108901
-0.0230305354422544
-0.0226314539097334
-0.0222400249372594
-0.0218560941091788
-0.0507347484269776
-0.0497656342994421
-0.0488155756553414
-0.0478841904179035
-0.0469711041605567
-0.0460759499539467
-0.0451983682159938
-0.0443380065649954
-0.04349451967561
-0.0426675691377696
-0.0690512373916601
-0.0676988892659711
-0.0663732591597057
-0.0650738121688672
-0.0638000240960395
-0.0625513812362524
-0.061327380167155
-0.0601275275433615
-0.0589513398949268
-0.0577983434298499
-0.0798959968836801
-0.0783118296861876
-0.0767590179311153
-0.075236934338367
-0.0737449641817172
-0.0722825050377462
-0.070848966539776
-0.0694437701367416
-0.0680663488568722
-0.0667161470761144
-0.0870923923770111
-0.0853501644123682
-0.0836424574587049
-0.0819685812754241
-0.0803278594347159
-0.0787196290453132
-0.0771432404817372
-0.0755980571189827
-0.0740834550724916
-0.0725988229433447
-0.0938517856423573
-0.0919597921418873
-0.0901053230755036
-0.0882876284941805
-0.0865059734554645
-0.0847596377233337
-0.0830479154740473
-0.0813701150078874
-0.0797255584666505
-0.0781135815568064
-0.0709710539089627
-0.0695363264091657
-0.068129982300297
-0.0667514544606256
-0.0654001871183478
-0.0640756356245618
-0.0627772662308033
-0.061504555871009
-0.0602569919478597
-0.0590340721233726
-0.0603584398949284
-0.0591316173063881
-0.0579290264682957
-0.056750183396991
-0.0555946137957619
-0.054461852861083
-0.0533514450927388
-0.0522629441077243
-0.0511959124578993
-0.0501499214512524
-0.0391514545380662
-0.0383507401038745
-0.0375657394788558
-0.0367961389867801
-0.0360416312321536
-0.0353019149745588
-0.0345766950055602
-0.033865682028031
-0.0331685925379137
-0.0324851487083393
-0.00535056310303972
-0.00523611845555294
-0.00512366159940925
-0.00501315312290274
-0.00490455440991688
-0.00479782762400305
-0.00469293569276807
-0.00458984229259229
-0.00448851183363352
-0.00438890944514547
0.00709693589447724
0.00695973269102801
0.00682557387030336
0.00669439826823037
0.00656614593662397
0.00644075811890232
0.00631817722624461
0.00619834681426035
0.006081211560101
0.00596671724004416
0.0641953639885848
0.0628900192232731
0.0616110938833732
0.0603580599514366
0.0591303999623225
0.0579276067921413
0.0567491834514335
0.0555946428824576
0.0544635077605609
0.0533553102995068
0.0760614019309926
0.0745099845572312
0.0729899176511513
0.0715005747876987
0.0700413420619128
0.0686116178384903
0.0672108125063993
0.065838348238362
0.0644936587551719
0.0631761890947278
0.102471749850247
0.100375083980602
0.0983206896597064
0.0963077224575901
0.0943353548237909
0.0924027757497559
0.0905091904379667
0.0886538199777025
0.0868359010272659
0.0850546855025893
0.0922050989917214
0.0903127457036135
0.0884585896448176
0.0866418678896892
0.0848618327616428
0.0831177515281425
0.0814089061017853
0.0797345927473767
0.0780941217948499
0.0764868173579423
0.0656557347280184
0.0643025420373764
0.0629767706959647
0.0616778730854897
0.0604053125303885
0.0591585630789435
0.0579371092887886
0.0567404460166738
0.0555680782124686
0.0544195207172642
0.092816753115109
0.090904194034044
0.0890302616492757
0.0871941846262327
0.0853952070465667
0.083632588099805
0.0819056017811324
0.0802135365952399
0.0785556952660755
0.0769313944524264
0.0615664061449088
0.0602895468853415
0.0590386082292707
0.0578130726870949
0.0566124331082367
0.0554361924743194
0.05428386369646
0.0531549694166387
0.0520490418130208
0.0509656224091852
0.0505584884257999
0.0495053348818892
0.0484736367327798
0.0474629656910714
0.0464729020237833
0.0455030343812037
0.0445529596291419
0.0436222826845736
0.0427106163545297
0.0418175811782309
0.00939408095045557
0.0091839446975186
0.00897840290318896
0.00877736399254836
0.00858073821053118
0.00838843758544172
0.00820037589321743
0.00801646862238492
0.00783663293973014
0.00766078765664346
-0.0357467827130726
-0.0350285593061859
-0.0343243173689807
-0.0336337776123159
-0.0329566663448091
-0.0322927153609918
-0.0316416618316886
-0.031003248196587
-0.0303772220589735
-0.0297633360825795
-0.0583456754566036
-0.0571570725252908
-0.0559918702653697
-0.0548496014889341
-0.0537298083646025
-0.0526320422305222
-0.0515558634111102
-0.0505008410374845
-0.0494665528714666
-0.0484525851331501
-0.0632805769325753
-0.061981691797417
-0.0607084259759194
-0.0594602682372525
-0.0582367175893896
-0.0570372830745391
-0.0558614835686484
-0.0547088475849566
-0.0535789130814646
-0.0524712272722763
-0.0741802674214593
-0.0726484637631994
-0.0711469559881266
-0.0696751397674866
-0.068232422875365
-0.0668182249469194
-0.0654319772414524
-0.06407312241023
-0.0627411142689773
-0.0614354175749092
-0.0918194269397254
-0.0899156837706929
-0.0880497002403793
-0.0862207233130707
-0.0844280150330121
-0.082670852223222
-0.0809485261903315
-0.0792603424353437
-0.0776056203702087
-0.0759836930400528
-0.0882470462136222
-0.0864047730694146
-0.0845990562866525
-0.0828291672789181
-0.0810943920553768
-0.0793940309294108
-0.077727398233149
-0.0760938220376932
-0.0744926438789797
-0.0729232184891231
-0.0764021392598746
-0.0747914825879938
-0.0732127778184619
-0.0716653887827032
-0.0701486920659615
-0.0686620767530304
-0.0672049441790783
-0.065776707685492
-0.0643767923806227
-0.0630046349053508
-0.0629567509349975
-0.0616118743040062
-0.0602936644810299
-0.059001591358971
-0.0577351354725018
-0.0564937877863123
-0.0552770494876249
-0.054084431782897
-0.05291545569861
-0.0517696518860973
-0.016459137059659
-0.0160591451268743
-0.0156669475493576
-0.0152823916957328
-0.0149053280397151
-0.0145356100994682
-0.014173094378199
-0.0138176403060051
-0.0134691101828999
-0.0131273691230476
-0.00616401935248412
-0.00597134134984678
-0.00578234478620665
-0.00559695980172314
-0.0054151180027624
-0.00523675243447208
-0.00506179755396019
-0.00489018920404227
-0.00472186458758728
-0.00455676224239987
0.0206269258928184
0.020272820211634
0.0199259342968023
0.0195861195116294
0.0192532301015316
0.0189271231339578
0.0186076584394552
0.0182946985538752
0.0179881086616351
0.0176877565400986
0.0454837821166532
0.0446196720106435
0.0437729423334581
0.0429432405594454
0.0421302210954657
0.0413335451391905
0.0405528805401687
0.0397879016636082
0.039038289256812
0.038303730318221
0.0910826624439984
0.089280578338105
0.087514593316568
0.0857839798163713
0.0840880246735356
0.0824260288313816
0.0807973070545742
0.0792011876488008
0.0776370121859831
0.0761041352349228
0.087072108412066
0.0853443056694374
0.0836510565273532
0.081991662786983
0.0803654400203477
0.0787717172904223
0.0772098368767686
0.0756791540065631
0.0741790365909498
0.0727088649665788
0.0918497215476304
0.0900157089280391
0.0882182989944997
0.0864567506790301
0.0847303374934878
0.0830383472327476
0.0813800816837471
0.0797548563402799
0.0781620001234238
0.0766008551074897
0.0927393053448959
0.0908774576273572
0.0890526722807525
0.087264196603007
0.0855112926489525
0.0837932369292886
0.0821093201154834
0.0804588467505383
0.0788411349654403
0.0772555162012694
0.0766104253153213
0.0750684025626409
0.0735569172806123
0.0720753440318944
0.0706230695290113
0.0691994923848807
0.0678040228682928
0.0664360826642554
0.065095104639072
0.0637805326100906
0.0633750882382778
0.0620935954702944
0.0608372659913403
0.0596055779740503
0.0583980196023823
0.0572140888646082
0.0560532933504252
0.054915150052123
0.0537991851697033
0.0527049339199248
0.0359654250036616
0.0352344033783361
0.034517325941648
0.033813890496182
0.0331238003954262
0.0324467644259983
0.0317824966922799
0.0311307165033696
0.0304911482623496
0.0298635213578002
0.00641783366483573
0.00628130370711055
0.0061465659891855
0.00601355584105079
0.00588220932781702
0.00575246322879508
0.00562425501709818
0.00549752283973071
0.00537220549817796
0.00524824242948618
-0.0187447849385549
-0.0183768793809769
-0.0180175906570508
-0.0176667814008376
-0.0173243176091322
-0.0169900685792364
-0.0166639068478265
-0.0163457081308991
-0.0160353512647049
-0.015732718147726
-0.035007401728528
-0.0343186972415506
-0.0336454086715658
-0.032987269273038
-0.0323440182928341
-0.0317154008534732
-0.0311011678384645
-0.0305010757796929
-0.0299148867467824
-0.0293423682384315
-0.086100214381057
-0.0843793709981409
-0.0826950469817636
-0.0810465609088702
-0.0794332456605797
-0.0778544481363497
-0.0763095289735212
-0.0747978622721277
-0.0733188353248462
-0.0718718483519964
-0.078614333112025
-0.0770624388136891
-0.0755442070471481
-0.0740590203527596
-0.0726062742818741
-0.0711853771330642
-0.0697957496931974
-0.0684368249832392
-0.0671080480086896
-0.065808875514545
-0.100547806662901
-0.0985680785654388
-0.0966311662946406
-0.0947362761740109
-0.0928826310057183
-0.0910694697327052
-0.0892960471069983
-0.0875616333641336
-0.0858655139035509
-0.0842069889747972
-0.118744625964819
-0.116417988630413
-0.114141767313093
-0.111915022390551
-0.109736833529455
-0.107606299285658
-0.105522536711792
-0.103484680972096
-0.101491884964327
-0.0995433189485802
-0.0686330334591112
-0.0673651074592581
-0.0661271231528016
-0.0649185543057005
-0.0637388855371519
-0.0625876120821385
-0.0614642395580596
-0.0603682837353592
-0.0592992703120583
-0.0582567346921312
-0.0420139355108109
-0.0413351363812264
-0.0406752306086187
-0.0400339150248907
-0.0394108926197863
-0.0388058723905349
-0.0382185691938322
-0.0376487036001016
-0.0370960017499602
-0.0365601952128891
-0.0193750568306861
-0.0192139067945387
-0.0190620405961468
-0.0189193466909554
-0.0187857155573514
-0.0186610396222182
-0.0185452131873411
-0.0184381323566178
-0.018339694964066
-0.0182498005026517
0.00332978871533385
0.00296218343778243
0.00259514731917498
0.00222859879603021
0.0018624585124325
0.00149664931611682
0.00113109625518604
0.000765726575478354
0.000400469718517371
3.52573200448347e-05
0.0228590787901837
0.0220183862957786
0.021187059863724
0.0203648499183231
0.0195515128778521
0.0187468110800069
0.017950512709259
0.0171623917260586
0.0163822277978394
0.0156098062317618
0.0300313512640571
0.0289624726223057
0.0279069558384712
0.0268644837189349
0.0258347468859093
0.0248174436697024
0.0238122800033516
0.0228189693194967
0.0218372324495206
0.0208667975247785
0.0744167337417672
0.0723506814019927
0.0703175212343456
0.0683165630366442
0.0663471323735827
0.0644085703107411
0.0625002331538163
0.06062149219294
0.0587717334519873
0.0569503574426999
0.0616347341234178
0.0597355846044199
0.0578657615353979
0.0560246679401857
0.0542117212305513
0.0524263529654352
0.050668008614613
0.0489361473265948
0.0472302417007064
0.0455497775631741
0.0748568327120758
0.0725910319067911
0.0703619099511901
0.06816874974513
0.0660108514252791
0.0638875320615373
0.061798125358731
0.0597419813634374
0.0577184661758174
0.0557269616663039
0.0711307914039701
0.0688455572737556
0.0665976950128631
0.064386504572326
0.0622113031701055
0.0600714249773002
0.057966220809444
0.0558950578227844
0.0538573192153873
0.0518524039329407
0.0444435413663395
0.0426139722197281
0.0408132845984319
0.0390409821240176
0.0372965818700752
0.0355796141114126
0.0338896220767477
0.0322261617047754
0.0305888014035514
0.0289771218130532
0.0291646722746233
0.0275667778975119
0.0259941049973733
0.0244462662944205
0.0229228858889687
0.0214235990354528
0.0199480519191528
0.0184959014355446
0.0170668149721909
0.0156604701930974
-0.00639208682403769
-0.00733017067297936
-0.00825489982096883
-0.00916638827263228
-0.0100647441860708
-0.0109500700073255
-0.0118224626042025
-0.0126820133994308
-0.0135288085032137
-0.0143629288451947
-0.00436779591351666
-0.00539852949557584
-0.0064123636937321
-0.00740944864294057
-0.00838992817694439
-0.00935393999253087
-0.0103016158125797
-0.011233081547962
-0.0121484574583004
-0.0130478583115945
-0.0731472501649257
-0.0728011064965521
-0.0724635945923069
-0.0721343236820839
-0.0718129079881766
-0.0714989666844144
-0.0711921238581414
-0.0708920084749636
-0.0705982543461801
-0.0703105000988486
-0.0913681353480484
-0.0906538537876447
-0.0899532714632052
-0.0892658711819543
-0.0885911439501843
-0.0879285888875003
-0.0872777131445517
-0.0866380318241493
-0.0860090679056587
-0.0853903521725456
-0.119142509737282
-0.117838515688657
-0.116557505294777
-0.115298758375891
-0.114061567867818
-0.112845239653691
-0.111649092400373
-0.110472457399414
-0.109314678412352
-0.108175111520273
-0.133678438248596
-0.132027596800954
-0.130404031460873
-0.128806928025348
-0.127235488279133
-0.125688929779242
-0.124166485644333
-0.122667404348851
-0.121190949521726
-0.119736399749394
-0.139256209937136
-0.13741382775445
-0.135599870463517
-0.133813502926275
-0.132053907469462
-0.130320283641323
-0.128611847972715
-0.126927833742451
-0.125267490746666
-0.12363008507193
-0.130478622707882
-0.128711448720431
-0.126968578165895
-0.125249270750131
-0.123552802770959
-0.121878466881629
-0.120225571857071
-0.118593442362658
-0.116981418725264
-0.115388856706337
-0.11159004235409
-0.110080145428701
-0.108586954906438
-0.107109904279145
-0.105648440995414
-0.104202026247624
-0.102770134758974
-0.101352254570244
-0.0999478868259791
-0.0985565455597897
-0.121191334467436
-0.11933236345663
-0.117494887998601
-0.115678274768594
-0.11388190616787
-0.112105180018391
-0.1103475092559
-0.108608321620994
-0.106887059347813
-0.1051831788499
-0.0666053872674155
-0.0656909506446341
-0.0647772121236798
-0.0638639838633566
-0.062951084529657
-0.0620383390764889
-0.0611255785180447
-0.0602126396923577
-0.0592993650156055
-0.0583856022267044
-0.0343502010344547
-0.033909002815864
-0.0334574033100128
-0.0329954582086849
-0.0325232232988588
-0.0320407542147234
-0.0315481061750376
-0.0310453337053453
-0.0305324903445601
-0.0300096283354256
-0.0100688019376936
-0.0099239139868863
-0.0097611906701216
-0.0095808346169699
-0.00938304217418295
-0.00916800305271881
-0.00893589995399502
-0.00868690817492634
-0.00842119519134377
-0.00813892021940044
0.00859572366968919
0.00857374529747856
0.00857464856016898
0.00859817746199321
0.00864408949520357
0.00871215616380994
0.00880216353240781
0.00891391280020892
0.00904722090033738
0.00920192112439366
0.0815019620500639
0.080220480254197
0.0789895848509317
0.077808590412126
0.0766768431826672
0.0755937216166362
0.0745586369415179
0.0735710337497482
0.0726303906167578
0.0717362207446106
0.0733707230203473
0.0725172871292159
0.0717100971937779
0.0709487914913858
0.0702330468937307
0.0695625796294665
0.0689371460625399
0.0683565434842119
0.067820610916602
0.067329229925412
0.103384586780173
0.102233836194882
0.101142520767216
0.100110401399552
0.099137291625996
0.0982230583017172
0.0973676222824995
0.0965709590906876
0.0958330995634737
0.0951541304793047
0.0998859091877753
0.0992154986019251
0.0986067758766112
0.0980600133768252
0.0975755429277294
0.0971537561925926
0.0967951049942792
0.0965001015745912
0.0962693187855717
0.0961033902068094
0.110230686245501
0.109904944283816
0.10965215861281
0.109473088631732
0.109368556055154
0.10933944440636
0.10938669839242
0.109511323154186
0.10971438338446
0.109997002307594
0.0945634574705529
0.0953326261033673
0.0961785810333229
0.0971027958231989
0.0981067925659449
0.0991921399465365
0.10036045111937
0.101613381395488
0.102952625734224
0.104379916034093
0.0943992767503303
0.0962436898804953
0.0981768190400931
0.100200606816717
0.102317014141395
0.104528016325455
0.106835598871074
0.109241753053979
0.11174847127741
0.114357742197134
0.0996664347908247
0.102843538895996
0.106121946392154
0.109503720244181
0.112990889049893
0.11658544088403
0.120289316931547
0.124104404916347
0.128032532332528
0.132075459486211
0.10923804989037
0.114068984252027
0.119008448201964
0.124058081439395
0.129219414768709
0.134493862316365
0.139882713640397
0.145387125748453
0.151008115041391
0.156746549200459
0.134738097609793
0.14128461870577
0.147938781916261
0.154701006763336
0.161571518768582
0.168550341522767
0.175637288848511
0.182831957080914
0.190133717491587
0.197541708882245
0.160024339698573
0.168564363084341
0.177188093876866
0.185894040195246
0.194680436769735
0.203545239273787
0.212486119016312
0.22150045802262
0.230585344532139
0.239737568940868
0.234584812580252
0.244155433906538
0.253776048988247
0.263442343846013
0.273149691635876
0.282893151868571
0.292667470252901
0.302467079185814
0.312286098910104
0.322118339359569
0.30231943828926
0.31276589468721
0.323193009671776
0.333593627570746
0.343960297672396
0.354285280621493
0.364560555593751
0.374777828254459
0.384928539504809
0.395003875017
0.376779015629527
0.387254607658278
0.397615380943261
0.407851842447485
0.417954298667407
0.427912869885422
0.43771750514998
0.447357997964836
0.456824002666256
0.4661050514644
0.486774197853393
0.495416069121717
0.503845780465504
0.512052463414367
0.520025223433109
0.52775316027196
0.535225388746362
0.542431059903613
0.549359382531492
0.555999644961901
0.576989533311625
0.582721680755704
0.588140341300509
0.593235223644747
0.597996230116657
0.602413479123847
0.606477327527863
0.61017839288585
0.613507575501572
0.616456080226875
0.631421208314528
0.633328980391433
0.634836819053113
0.635937256678787
0.636623235442904
0.63688812635219
0.636725747628837
0.636130382385318
0.635096795537123
0.633620249901377
0.651722106720698
0.648936976872861
0.645706027525179
0.6420264920215
0.637896171481181
0.633313444964642
0.628277278520429
0.622787233080331
0.616843471172238
0.610446762423614
0.633061999150797
0.625160155859888
0.616823441317621
0.608054842240257
0.598857965929909
0.58923703804399
0.579196899063376
0.568742999460639
0.557881393573318
0.546618732190737
0.56187731957661
0.549283085259084
0.536322275556856
0.523003607211514
0.509336342030608
0.495330272058183
0.480995703623954
0.466343440308357
0.451384764863747
0.436131420134991
0.463353293446538
0.446671050471991
0.429749464257803
0.412601558579567
0.395240715614648
0.377680651779364
0.359935392943328
0.342019249082654
0.323946788434966
0.305732811220736
0.315963909262749
0.2969263800817
0.27780458074966
0.258613736174979
0.239369172340105
0.220086288719003
0.20078053072973
0.181467362287634
0.16216223852571
0.142880578746187
0.127134682510402
0.107874244986576
0.0886844833379001
0.0695803812375573
0.050576757508054
0.0316882417334199
0.0129292505148015
-0.00568603558080838
-0.0241436943296094
-0.0424300833728779
-0.0474910570614213
-0.0656625364871672
-0.0836183507307169
-0.101346281764734
-0.118834483688985
-0.136071498772139
-0.153046272467719
-0.169748167382366
-0.186166976178342
-0.202292933395043
-0.210303809003435
-0.225976750541307
-0.241327091833355
-0.256346995191862
-0.271029106121688
-0.285366558546883
-0.299352978940519
-0.312982489366888
-0.326249709449641
-0.339149757280907
-0.356322699601996
-0.368380538761805
-0.380061449797367
-0.39136249522749
-0.402281226186787
-0.412815677433159
-0.422964361473333
-0.432726261839306
-0.442100825550973
-0.451087954801167
-0.483766207381429
-0.491486348768667
-0.498831277619018
-0.505802422190122
-0.512401617976678
-0.51863109547854
-0.524493467476169
-0.529991715855928
-0.535129178028249
-0.539909532981447
-0.55320530480622
-0.557101973491314
-0.560658115753888
-0.563878558975119
-0.56676839985419
-0.569332989130324
-0.571577916230417
-0.573508993880431
-0.575132242717928
-0.576453875942029
-0.600422215631902
-0.600689644508357
-0.600684512678363
-0.600413464074194
-0.599883263939581
-0.599100784317848
-0.598072989795376
-0.59680692352547
-0.595309693555784
-0.593588459481346
-0.623841911585295
-0.621034368133948
-0.618037687345812
-0.614858844974975
-0.611504812391964
-0.607982545450156
-0.604298973786804
-0.600460990567477
-0.596475442681481
-0.592349121393944
-0.604271509494353
-0.599552004291148
-0.594718318328198
-0.589776803574544
-0.584733719246252
-0.579595225191866
-0.5743673757392
-0.569056113998698
-0.563667266618246
-0.558206538982883
-0.595791428040425
-0.589319760790453
-0.582810247462689
-0.576267715803855
-0.569696861749279
-0.563102246969407
-0.556488296797031
-0.549859298523032
-0.543219400048191
-0.536572608878085
-0.551800440066867
-0.544702832365523
-0.537618482450629
-0.530550653349561
-0.523502470928612
-0.516476924589359
-0.509476868213074
-0.502505021339108
-0.495563970563232
-0.488656171142004
-0.493420336020709
-0.486347344423653
-0.479318974703862
-0.472337081111824
-0.465403399102087
-0.458519547853424
-0.451687032904022
-0.444907248889749
-0.438181482373736
-0.431510914756178
-0.439765285219249
-0.43290344826101
-0.426105853511524
-0.419373170229989
-0.412705980332362
-0.406104781518589
-0.399569990413248
-0.393101945711607
-0.38670091132353
-0.380367079508069
-0.355909780713075
-0.350083568737826
-0.344317274323291
-0.338610983092055
-0.332964721347452
-0.327378459084878
-0.321852112954069
-0.316385549168336
-0.310978586357257
-0.305630998359577
-0.276896462072818
-0.272147420786835
-0.267447215085325
-0.262795658373061
-0.258192528400828
-0.253637569727108
-0.249130496104719
-0.244670992791624
-0.240258718785302
-0.235893308980327
-0.214075668695166
-0.210161527172657
-0.20628585132307
-0.202448343032059
-0.198648686852571
-0.194886551762264
-0.191161592845615
-0.187473452901736
-0.183821763978984
-0.180206148837595
-0.145088948874742
-0.142190829413687
-0.139314671384284
-0.136460332008286
-0.133627660334064
-0.130816498400762
-0.128026682338986
-0.125258043409794
-0.12251040898375
-0.119783603461844
-0.0985425723217275
-0.0962368528209208
-0.09394382186963
-0.0916634519537496
-0.0893957133487846
-0.0871405747907583
-0.0848980041004022
-0.0826679687624217
-0.0804504364615957
-0.078245375577445
-0.0577219555147803
-0.0559175266915961
-0.0541179625621149
-0.0523233886433472
-0.050533930054198
-0.0487497118563378
-0.0469708593636879
-0.0451974984219909
-0.0434297556599168
-0.041667758713098
-0.0175039035174607
-0.0162131417804814
-0.0149193236773284
-0.0136227662000536
-0.0123237844364805
-0.011022691732304
-0.0097197998332752
-0.00841541900857501
-0.00710985815643217
-0.0058034248930019
0.0404980737170719
0.0408829522127181
0.0412862467411172
0.0417072855941698
0.0421454054916659
0.0425999514261406
0.0430702765213311
0.043555741903464
0.0440557165845978
0.0445695773573107
0.0611517502408667
0.0613624179216037
0.0615917345959371
0.0618389757921456
0.0621034270698371
0.0623843839165144
0.0626811516522663
0.0629930453420737
0.063319389715212
0.0636595190912765
0.0585427859538039
0.059020660450309
0.0595081356829006
0.0600046285243598
0.0605095642557196
0.0610223765410338
0.0615425074056057
0.0620694072173662
0.0626025346710786
0.0631413567750916
0.0652933547774293
0.0658090364911286
0.0663295233618437
0.0668543023870476
0.0673828691038807
0.067914727580499
0.0684493904083769
0.0689863786953868
0.0695252220594438
0.0700654586225578
0.044733824124334
0.0458058847750125
0.0468673893834093
0.0479181220024398
0.0489578709206167
0.0499864287400165
0.0510035924519383
0.052009163510176
0.0530029479018177
0.0539847562155109
0.0374787283076108
0.0387942840884286
0.0400901542423213
0.0413663115693685
0.0426227309091356
0.0438593892498131
0.0450762658333312
0.0462733422564376
0.0474506025677348
0.0486080333606616
0.0410472291732518
0.042343287315723
0.0436159232566
0.0448652058823953
0.0460912056037399
0.0472939944527617
0.0484736461759159
0.0496302363223169
0.0507638423275978
0.051874543593339
0.0163759838257223
0.0181911393765555
0.0199686309712988
0.0217088463292257
0.0234121694732154
0.0250789809033911
0.0267096577642594
0.0283045740054204
0.0298641005360016
0.03138860537286
-0.0155553046084345
-0.0131068640800578
-0.0107122275825304
-0.00837064049635572
-0.00608135837826573
-0.00384364668932857
-0.00165678053170826
0.000479955606092375
0.00256726809568253
0.0046058544070835
-0.00821251527544664
-0.00596574242295667
-0.00377172998814945
-0.00162969255430756
0.00046114504247452
0.00250154795471236
0.00449227155697329
0.00643406167152349
0.00832765478635888
0.0101737782657807
-0.0342038446939732
-0.0315038913425898
-0.0288682228441903
-0.0262957680455784
-0.0237854715358505
-0.0213362933255938
-0.0189472085353586
-0.016617207093228
-0.0143452934412247
-0.0121304862503635
0.000649135569531722
0.00253489008187646
0.00437075682104826
0.00615757586838317
0.00789617611891646
0.00958737548407118
0.0112319810878336
0.0128307894565838
0.0143845867027945
0.0158941487027286
0.0137182169373586
0.015216257018527
0.0166708355795571
0.0180827190537309
0.0194526638460886
0.0207814164906752
0.0220697138027237
0.0233182830258976
0.0245278419747956
0.0256990991728188
0.0174406335089605
0.0187299135498256
0.0199791097658828
0.0211889717556328
0.0223602389128992
0.0234936405708579
0.024589896141836
0.0256497152530093
0.0266737978781553
0.0276628344655814
0.0365307609168868
0.0372895185705806
0.0380184920941025
0.0387182702094808
0.0393894339968286
0.0400325569761657
0.0406482051868267
0.0412369372645482
0.0417993045163607
0.0423358509933527
0.0935497472606404
0.0929968581209373
0.0924405387758069
0.0918808895428098
0.0913180121263633
0.0907520095136283
0.0901829858722278
0.0896110464498268
0.089036297475559
0.088458846063344
0.119628203443902
0.118394812830484
0.117172070995645
0.11595982754551
0.114757937717877
0.113566262192898
0.112384666907754
0.111213022875289
0.110051206006579
0.108899096937384
0.122192423189435
0.120763456747013
0.119349789127575
0.117951199935867
0.116567475055669
0.115198406451434
0.11384379197443
0.112503435173418
0.111177145109727
0.109864736176736
0.135633171156789
0.133793115119488
0.131977518205616
0.130185992659843
0.128418159654464
0.126673649045113
0.124952099132251
0.123253156428278
0.121576475430169
0.119921718397595
0.138660809141195
0.136631288173508
0.134631080304805
0.132659709825793
0.130716711096859
0.128801628290233
0.126914015138311
0.125053434688036
0.123219459061195
0.121411669220576
0.159910809173532
0.157328409474994
0.154787514983017
0.152287409781513
0.149827392309604
0.14740677502847
0.145024884095978
0.142681059048851
0.140374652492298
0.138105029796908
0.141743425914049
0.139425144316805
0.137144225347109
0.134900034439523
0.132691949344787
0.130519359848179
0.128381667494587
0.126278285320101
0.12420863759005
0.122172159543302
0.114660855204733
0.112801966753581
0.110972357595896
0.109171549550366
0.107399073318021
0.105654468279571
0.10393728229776
0.10224707152465
0.100583400213726
0.0989458405367021
0.102202513737639
0.100516120149337
0.0988565978228948
0.0972235089743467
0.0956164236866677
0.0940349197367034
0.0924785824264518
0.0909470044185241
0.0894397855757951
0.0879565328050198
0.0840653177087063
0.0826786915254338
0.0813138953285204
0.0799705826352266
0.0786484128837088
0.0773470513068624
0.0760661688093904
0.0748054418480919
0.0735645523151831
0.0723431874246323
0.0396441011846207
0.0391065511924182
0.0385746963934892
0.0380485022591408
0.0375279338960866
0.0370129560524681
0.0365035331243888
0.0359996291628164
0.035501207880916
0.0350082326617418
0.0115559586031146
0.0115445379738937
0.0115290301607658
0.0115095854560927
0.0114863501027465
0.011459466378863
0.0114290726812705
0.0113953036076957
0.0113582900376379
0.0113181592120952
-0.030017455721211
-0.0292169626887073
-0.0284361668916233
-0.0276746165680919
-0.026931869980249
-0.0262074952064744
-0.0255010699375298
-0.0248121812764985
-0.0241404255424946
-0.0234854080780202
-0.049770996503046
-0.048596362982817
-0.047448381967385
-0.0463264724521331
-0.0452300659572806
-0.0441586062678887
-0.0431115491789136
-0.0420883622451882
-0.0410885245362778
-0.0401115263961138
-0.0534452858700263
-0.0522195710967246
-0.0510210941995872
-0.0498492712460923
-0.0487035307859536
-0.0475833135908417
-0.0464880723992103
-0.04541727166621
-0.0443703873185228
-0.0433469065140706
-0.0742265780324622
-0.0725948684532973
-0.0709981681328955
-0.0694357456556141
-0.067906884928874
-0.0664108848657214
-0.0649470590737948
-0.0635147355504699
-0.0621132563842028
-0.0607419774617934
-0.0661825795069202
-0.0647307859773782
-0.0633101228127355
-0.0619199427158819
-0.0605596119218799
-0.0592285099167142
-0.0579260291617203
-0.0566515748236007
-0.0554045645098924
-0.0541844280098243
-0.0573559164464505
-0.0560983761155782
-0.0548678604539106
-0.0536638097252311
-0.0524856758713383
-0.0513329222686494
-0.0502050234897773
-0.0491014650699579
-0.0480217432782606
-0.0469653648934667
-0.0468565425793326
-0.0458264561482018
-0.0448186737111502
-0.0438327343591567
-0.0428681867908498
-0.0419245891115612
-0.0410015086365245
-0.0400985216980967
-0.0392152134569717
-0.038351177717276
-0.0155826691445906
-0.0152054193323377
-0.0148372792334399
-0.0144780550663839
-0.0141275572322925
-0.013785600223656
-0.0134520025350024
-0.0131265865754653
-0.0128091785832272
-0.0124996085417948
0.0059118346825997
0.00583498093157786
0.00575820723660136
0.00568152106622577
0.00560492950326896
0.00552843925897228
0.00545205668675308
0.00537578779555048
0.00529963826281943
0.0052236134471233
0.0189800293000939
0.0186207081635761
0.0182672008685483
0.0179193982909638
0.0175771933119346
0.0172404807829132
0.0169091574915115
0.0165831221278356
0.0162622752514423
0.0159465192588204
0.0676975921272103
0.0663244713027495
0.0649775181350645
0.0636562155197655
0.0623600565648843
0.0610885443908593
0.0598411919344759
0.0586175217565987
0.057417065853679
0.0562393654729174
0.0689411394908905
0.0675235398017922
0.0661330581260025
0.0647691574070048
0.063431311238018
0.0621190036523753
0.0608317289179734
0.0595689913358086
0.0583303050424107
0.0571151938161734
0.069957188885942
0.0685001415752531
0.0670710542234776
0.0656693723362576
0.0642945524476062
0.0629460619019255
0.06162337864032
0.0603259909911174
0.0590533974645169
0.0578051065512746
0.105510375908565
0.103306201193444
0.101144986399518
0.0990258771311687
0.0969480360415105
0.0949106424933461
0.0929128922268774
0.090953997033985
0.0890331844389642
0.0871496973856232
0.0852716252793257
0.0834612172447109
0.0816859402761487
0.0799450962439359
0.078238000958855
0.0765639838947685
0.0749223879167928
0.0733125690147851
0.0717338960421792
0.070185750459963
0.0969975544043855
0.0949278951856272
0.0928986035735733
0.090908876896048
0.0889579285242945
0.0870449875531456
0.0851692984875214
0.0833301209352051
0.0815267293056969
0.0797584125150657
0.042961810925437
0.0419803472781126
0.0410175245913145
0.0400729742344481
0.0391463349487715
0.0382372527006396
0.0373453805377153
0.0364703784480191
0.0356119132217536
0.0347696583158985
0.0150570950320059
0.0146334718172731
0.0142173697315755
0.0138086423292201
0.0134071460990128
0.0130127404060261
0.012625287434588
0.0122446521322992
0.0118707021552424
0.0115033078142091
0.000752300821961427
0.000610633566125784
0.00047088566861575
0.000333022666278993
0.00019701079503065
6.28169761291986e-05
-6.95911971710927e-05
-0.000200245472814942
-0.000329176952817534
-0.00045641610594771
-0.0271700108027879
-0.0267489032461938
-0.0263370990881739
-0.0259344085549351
-0.0255406456555001
-0.0251556281058356
-0.0247791772545618
-0.0244111180101001
-0.0240512787693206
-0.0236994913476458
-0.0473042071335321
-0.0464770885396355
-0.0456673621991399
-0.0448746767229338
-0.0440986877352145
-0.0433390577331316
-0.042595455949229
-0.0418675582166443
-0.0411550468370159
-0.0404576104510426
-0.0627341325758373
-0.0615952763734136
-0.0604800170979978
-0.0593878794022267
-0.0583183974302059
-0.0572711146276177
-0.0562455835556719
-0.0552413657087492
-0.0542580313357277
-0.0532951592648381
-0.0789242881277268
-0.0774563889814459
-0.0760186398035181
-0.074610434357897
-0.0732311785172435
-0.0718802900207045
-0.0705571982366315
-0.0692613439299627
-0.0679921790343343
-0.0667491664286928
-0.106375965500629
-0.104346388184251
-0.102358172028126
-0.100410486917056
-0.0985025193217268
-0.0966334719670137
-0.0948025635069101
-0.0930090282059624
-0.0912521156271211
-0.0895310903257602
-0.0942680922724577
-0.0924850258402188
-0.0907383623797315
-0.0890273708559306
-0.0873513348382531
-0.0857095522086109
-0.084101334875168
-0.0825260084918789
-0.080982912183611
-0.0794713982767838
-0.0886293898663855
-0.0869610601495001
-0.0853268109820089
-0.0837259577490155
-0.082157829512111
-0.0806217687359059
-0.0791171310200109
-0.0776432848364159
-0.0761996112720933
-0.0747855037767664
-0.0513789887679845
-0.0504736774542316
-0.0495871498006615
-0.0487190267026918
-0.0478689366229386
-0.0470365154399524
-0.046221406299976
-0.0454232594716704
-0.0446417322037451
-0.0438764885854379
-0.026708243757529
-0.0263111728920187
-0.0259226815954552
-0.0255425944968728
-0.0251707397188561
-0.0248069488077682
-0.0244510566653613
-0.024102901481756
-0.023762324669784
-0.0234291708006058
-0.00792178633882124
-0.00791424323362833
-0.00790744675027888
-0.00790137785469192
-0.00789601788073213
-0.00789134852296947
-0.00788735182955769
-0.0078840101952693
-0.00788130635466366
-0.00787922337539904
-1.32627897411197e-05
-0.000173592914766374
-0.000331268556816866
-0.00048633848411761
-0.000638850477955089
-0.000788851352508502
-0.000936386974325742
-0.00108150228136239
-0.00122424130167786
-0.00136464717174434
0.0428455500498099
0.0418005497826606
0.0407759527591178
0.0397713558945387
0.0387863641758681
0.0378205905000719
0.036873655515814
0.0359451874683003
0.0350348220472139
0.0341422022376978
0.0757868894576479
0.074057065502668
0.0723614026530637
0.0706992232855157
0.0690698633372335
0.0674726720346026
0.0659070116272513
0.0643722571274541
0.0628677960547321
0.0613930281855612
0.0792578562525961
0.0774448593155661
0.0756677483435499
0.0739258115288308
0.0722183513062333
0.0705446840681194
0.0689041398850829
0.0672960622322485
0.0657198077210133
0.0641747458361888
0.0830880493851716
0.0811847643044015
0.0793192356962606
0.0774907146523844
0.075698467247193
0.0739417742380866
0.0722199307716203
0.07053224609556
0.0688780432767295
0.0672566589244354
0.0820092894328788
0.0801165988848958
0.0782615196064391
0.0764433058342675
0.074661226723272
0.072914566047892
0.0712026219096238
0.0695247064502773
0.0678801455710278
0.0662682786570521
0.0812323976132099
0.079344840723909
0.0774948615016235
0.0756817150807265
0.0739046714939207
0.0721630153741053
0.0704560456621941
0.0687830753207876
0.0671434310535979
0.065536453030429
0.048613545362219
0.0473846038684798
0.0461801306097946
0.0449996427221713
0.0438426669984615
0.0427087396950476
0.041597406342408
0.0405082215594952
0.0394407488717761
0.038394560532975
0.0060667214132728
0.00570355017559265
0.00534758852279893
0.00499869836542999
0.00465674437417718
0.00432159392451936
0.00399311704248362
0.00367118635148955
0.00335567702022743
0.00304646671164122
-0.0224483671941904
-0.0222289079858875
-0.0220138374806709
-0.0218030621366907
-0.0215964902857273
-0.0213940320958912
-0.0211955995350053
-0.0210011063347899
-0.0208104679556946
-0.0206236015524652
-0.033048818003401
-0.0326107831901119
-0.0321814543654355
-0.0317606518320268
-0.0313481994905302
-0.0309439247677687
-0.0305476585463502
-0.0301592350956845
-0.029778492004386
-0.0294052701140224
-0.0474700312615539
-0.0467335616630464
-0.0460117160071896
-0.0453041965118608
-0.044610711355741
-0.043930974559224
-0.0432647058677098
-0.0426116306372251
-0.0419714797223527
-0.041343989366375
-0.0762526641973835
-0.0749214920779018
-0.0736167944865294
-0.0723380371256894
-0.0710846963897147
-0.0698562591511305
-0.0686522225512149
-0.0674720937947306
-0.0663153899487625
-0.0651816377456065
-0.0963443818196552
-0.0945935377256824
-0.0928775222790037
-0.0911956345632525
-0.0895471876870637
-0.0879315085037007
-0.0863479373362459
-0.0847958277083158
-0.0832745460801618
-0.0817834715900183
-0.112842825375729
-0.110743679151982
-0.1086862930295
-0.106669827936139
-0.104693461588479
-0.102756388156141
-0.100857817932823
-0.0989969770139005
-0.09717310698049
-0.0953854645898193
-0.0919479751570371
-0.0902651669021939
-0.0886157531844578
-0.0869990622990393
-0.0854144359834432
-0.0838612291487184
-0.082338809616072
-0.0808465578587576
-0.0793838667491187
-0.0779501413106995
-0.0937986610635519
-0.0920674274424265
-0.0903705236318419
-0.0887072595207208
-0.0870769588090656
-0.0854789587318159
-0.0839126097882303
-0.0823772754766718
-0.0808723320347227
-0.0793971681844621
-0.076449621637428
-0.0750630136874975
-0.0737038079002197
-0.0723714527910797
-0.0710654079149275
-0.069785143645273
-0.0685301409579733
-0.0672998912192799
-0.0660938959781028
-0.0649116667624341
-0.0408523991360106
-0.0401857292461152
-0.0395320227813656
-0.038891016849254
-0.0382624538258778
-0.0376460812506192
-0.0370416517229977
-0.036448922801517
-0.035867656904589
-0.0352976212134077
-0.0185453362103924
-0.0183290406468899
-0.018116661026637
-0.0179081153177805
-0.0177033231408625
-0.0175022057358625
-0.0173046859298935
-0.0171106881055323
-0.0169201381698105
-0.0167329635237934
0.0154577284432094
0.0149822287054722
0.0145166939186421
0.0140609287708031
0.0136147418432735
0.0131779455326466
0.0127503559744042
0.0123317929680447
0.0119220799037141
0.011521043690303
0.0572949583977795
0.0559643641068774
0.0546608880456265
0.0533839922729182
0.0521331495919757
0.0509078433353736
0.0497075671543392
0.0485318248122955
0.0473801299824999
0.0462520060497695
0.0551846373930847
0.0538964927074961
0.0526346634639285
0.0513986277517144
0.050187874082793
0.0490019011831677
0.0478402177885258
0.0467023424439379
0.045587803307594
0.0444961379584168
0.064835997671409
0.0633498454563473
0.0618940177188669
0.0604679124717293
0.0590709397505869
0.0577025213734341
0.0563620907048659
0.055049092425028
0.0537629823032297
0.0525032269760448
0.0803062367140601
0.0785023798353759
0.0767352533989705
0.0750041274841671
0.0733082867504962
0.0716470301459875
0.0700196706212921
0.0684255348495366
0.0668639629517589
0.0653343082278575
0.0872291276052106
0.0852818610938577
0.0833742454050483
0.0815054923128606
0.0796748293363532
0.0778814994245689
0.0761247606478292
0.0744038858952045
0.0727181625780293
0.0710668923393634
0.0923275956617609
0.0902741917248324
0.0882626143752567
0.086292031954498
0.0843616294163194
0.0824706079944537
0.0806181848768741
0.0788035928866151
0.0770260801689666
0.0752849098849175
0.0560759639599748
0.0547641439857962
0.0534793621079643
0.0522210820081277
0.0509887780726181
0.0497819351782738
0.0486000484825233
0.0474426232176803
0.0463091744893696
0.0451992270789354
0.0225996412965301
0.0219763156872901
0.0213662960917524
0.020769320346389
0.0201851315086259
0.0196134777523298
0.019054112265394
0.0185067931493847
0.0179712833211809
0.0174473504165888
4.84486772869275e-05
-0.000106841693600757
-0.000258152632966357
-0.000405560208271538
-0.000549138988517939
-0.000688962074317345
-0.000825101127315264
-0.000957626399056721
-0.00108660675923389
-0.00121210972341501
-0.025757912728789
-0.0253759751890819
-0.0250007750116126
-0.0246321744619706
-0.0242700385837011
-0.0239142351428292
-0.023564634573443
-0.0232211099244033
-0.0228835368071003
-0.0225517933442525
-0.0565686298752937
-0.055544165418695
-0.0545392690557804
-0.0535535470971524
-0.0525866137505879
-0.0516380909631273
-0.0507076082663342
-0.0497948026246444
-0.0488993182867432
-0.0480208066399257
-0.0917439409624006
-0.0899843695629698
-0.0882590578754865
-0.0865673191646614
-0.0849084804530982
-0.083281882246153
-0.0816868782622961
-0.0801228351688756
-0.078589132323156
-0.0770851615185375
-0.0776755160129774
-0.0761868970589994
-0.074727104945076
-0.0732955618515856
-0.0718917015386467
-0.0705149691145284
-0.069164820808707
-0.0678407237494465
-0.0665421557458519
-0.0652686050742446
-0.114451418574573
-0.112192561740084
-0.109977937958773
-0.107806662143895
-0.10567786693324
-0.103590702334641
-0.101544335378559
-0.0995379497776323
-0.0975707455930124
-0.0956419389073879
-0.0975818669147799
-0.0956490287914811
-0.0937539011206514
-0.0918957295425429
-0.090073774807264
-0.0882873124725716
-0.0865356326076885
-0.0848180395030713
-0.0831338513859752
-0.0814824001416792
-0.0978837931499683
-0.0959264412453908
-0.0940072943078825
-0.0921255885359624
-0.0902805754264442
-0.0884715214684366
-0.086697707843479
-0.0849584301316604
-0.0832529980236192
-0.0815807350383224
-0.0576101947646208
-0.0564600727414746
-0.05533200920609
-0.054225563232059
-0.0531403027337749
-0.0520758042895988
-0.0510316529685451
-0.0500074421604531
-0.0490027734095406
-0.0480172562512919
-0.0384416479808358
-0.0376697743209711
-0.0369123953557704
-0.0361692215499261
-0.0354399691809526
-0.0347243602229117
-0.0340221222324555
-0.033332988237138
-0.0326566966259758
-0.0319929910421877
-0.0100430218835186
-0.00984035833830887
-0.00964080427538505
-0.00944429782046363
-0.00925077835884913
-0.009060186510224
-0.00887246410392173
-0.008687554154724
-0.00850540083910367
-0.0083259494719794
0.0330998428203664
0.032428450865984
0.0317714372166176
0.0311285142806739
0.0304994001960281
0.0298838187154633
0.0292814990943899
0.0286921759808134
0.028115589307502
0.0275514841863167
0.0374402496405075
0.0366863313902712
0.0359484434516819
0.0352262650993893
0.0345194820002757
0.0338277860856309
0.0331508754258945
0.0324884541078863
0.0318402321145133
0.0312059252068586
0.0898385240733699
0.0880165326667086
0.0862319463902139
0.0844840175326151
0.082772013314063
0.0810952155875082
0.0794529205460694
0.0778444384362285
0.0762690932767729
0.074726222583374
0.0915783370485297
0.0897220380318284
0.0879038380039034
0.0861229753756909
0.0843787037669923
0.082670291702307
0.0809970223127419
0.0793581930439053
0.0777531153696067
0.0761811145113285
0.0886677010757015
0.0868723483933387
0.0851138823302424
0.0833915654893911
0.0817046751987345
0.0800525032166952
0.0784343554435871
0.0768495516387713
0.075297425143507
0.0737773226093168
0.0789712005610301
0.0773762454330935
0.0758141730480162
0.074284325939745
0.0727860597686227
0.0713187430588995
0.0698817569414398
0.0684744949016363
0.0670963625323147
0.0657467772916203
0.0843889975113807
0.0826855492190308
0.0810171596294804
0.0793831277757615
0.0777827666872533
0.076215403109769
0.0746803772312425
0.0731770424129099
0.0717047649258475
0.0702629236928054
0.0582696280093398
0.0571037603362985
0.0559621980156688
0.0548444547875917
0.0537500540947295
0.0526785288882436
0.0516294214376529
0.050602283144487
0.0495966743596732
0.0486121642045791
0.028187660230234
0.0276430301727064
0.0271102730641246
0.0265891508267
0.0260794301220457
0.0255808822564472
0.0250932830879815
0.0246164129355328
0.0241500564896118
0.0236940027249588
0.0177715834727259
0.0174477854669117
0.0171314351519829
0.0168223826678933
0.0165204811301134
0.0162255865701617
0.0159375578773293
0.0156562567415719
0.0153815475975385
0.0151132975697195
-0.0173269511975747
-0.0169230195002967
-0.0165262131814963
-0.0161363912522479
-0.0157534155642018
-0.0153771507527285
-0.0150074641811671
-0.014644225886224
-0.0142873085244375
-0.0139365873197139
-0.0598990841626055
-0.058611100386031
-0.0573479512944441
-0.0561091424902855
-0.0548941894835426
-0.0537026174935047
-0.0525339612545146
-0.0513877648255736
-0.0502635814037902
-0.049160973141511
-0.0606542984617935
-0.0593357803583956
-0.0580427347592014
-0.0567746548579695
-0.0555310440031995
-0.0543114154949631
-0.0531152923857832
-0.0519422072854923
-0.0507917021700042
-0.0496633281938994
-0.0941812872303061
-0.0921605654386024
-0.0901793994613058
-0.0882370015720024
-0.0863325998159503
-0.08446543769454
-0.0826347738560713
-0.0808398817927074
-0.079080049543494
-0.0773545794033019
-0.11067319093589
-0.108296698682222
-0.105966921495391
-0.103682929063211
-0.101443809695361
-0.0992486699508337
-0.0970966342728197
-0.0949868446309221
-0.0929184601704858
-0.0908906568689822
-0.0904547771687074
-0.0884739108917039
-0.086531888149425
-0.0846279362303335
-0.0827612978915244
-0.0809312310492238
-0.0791370084754757
-0.0773779175009164
-0.0756532597234738
-0.0739623507228853
-0.0698796119589531
-0.0683039120876074
-0.0667589940112521
-0.0652442463615692
-0.0637590700107928
-0.0623028778267685
-0.0608750944329142
-0.0594751559729918
-0.0581025098805554
-0.0567566146530538
-0.054545204618508
-0.0532695102205647
-0.0520186405281233
-0.0507921034297834
-0.0495894166683044
-0.0484101076433863
-0.0472537132184012
-0.0461197795310078
-0.0450078618075089
-0.0439175241809817
-0.0364692705704783
-0.0355515903791463
-0.0346516172839273
-0.0337690015602679
-0.0329034004888218
-0.0320544782152243
-0.0312219056126537
-0.0304053601471566
-0.0296045257456665
-0.0288190926666445
-0.0141084976953945
-0.0136387362836938
-0.0131777645755697
-0.0127254111234425
-0.0122815079182885
-0.0118458903207479
-0.011418396993589
-0.0109988698355554
-0.0105871539165143
-0.0101830974138988
0.0397271331051279
0.0391012898783298
0.0384885381496218
0.0378886122640161
0.0373012518706428
0.0367262018167924
0.0361632120440589
0.0356120374865743
0.035072437971257
0.0345441781200915
0.0564888871039688
0.0555221538773889
0.0545752972016285
0.0536479159135546
0.0527396168651659
0.0518500147634136
0.0509787320131956
0.0501253985635142
0.0492896517567019
0.048471136180666
0.0784669924707657
0.0770505567709669
0.0756629630779653
0.0743036312236942
0.0729719926360115
0.0716674901068863
0.0703895775652157
0.0691377198541936
0.0679113925131123
0.0667100815635564
0.0801967388190654
0.0787433606279588
0.0773195335389882
0.0759246633135842
0.0745581675913396
0.0732194756525395
0.0719080281854545
0.0706232770582691
0.0693646850955982
0.0681317258594358
0.115168583441148
0.112996342004569
0.11086800914198
0.108782703999815
0.106739563335333
0.104737741164476
0.102776408416787
0.10085475259722
0.0989719774547169
0.0971273026574124
0.0970577478045502
0.0952513704357454
0.0934815577235319
0.0917475756554751
0.0900487048939667
0.0883842404828172
0.0867534915597101
0.0851557810744072
0.0835904455126055
0.0820568346252859
0.100512981027656
0.0986317702864223
0.0967885986790424
0.0949827028997987
0.0932133349042576
0.0914797616041465
0.0897812645682894
0.0881171397295546
0.0864866970976603
0.0848892604777074
0.0557043413518485
0.0547371448993612
0.0537896746107105
0.0528615330537345
0.0519523307412637
0.0510616859723179
0.0501892246764548
0.0493345802612666
0.0484973934629025
0.0476773121995926
0.0512091763578653
0.0503334071925394
0.0494755075404143
0.048635117123446
0.0478118828663732
0.0470054587526931
0.0462155056836302
0.045441691339839
0.0446836900459147
0.0439411826375924
0.00303021178965679
0.00314151966360043
0.00325091597387228
0.00335843554344351
0.00346411249743639
0.00356798027718241
0.00367007165400679
0.00377041874272876
0.00386905301488483
0.00396600531171387
-0.0348142630469361
-0.0339236404121301
-0.0330505599691513
-0.0321946747721
-0.0313556448138677
-0.0305331368872253
-0.0297268244487263
-0.0289363874853166
-0.028161512383619
-0.0274018918018086
-0.040354512881926
-0.039343711104955
-0.0383528976559973
-0.0373816768291952
-0.036429660831363
-0.0354964696236166
-0.0345817307661775
-0.0336850792662453
-0.0328061574289755
-0.031944614711378
-0.0621146910012236
-0.0606510877692017
-0.0592165775594111
-0.0578105829355948
-0.0564325380071988
-0.0550818881983393
-0.053758090021379
-0.0524606108550323
-0.0511889287269298
-0.0499425321004932
-0.0695302111340528
-0.0679063037734036
-0.0663147450682136
-0.0647548926908552
-0.0632261171557147
-0.0617278015622169
-0.0602593413430021
-0.0588201440171225
-0.0574096289481947
-0.0560272271073696
-0.0801081934892878
-0.0782589253641621
-0.0764465660182303
-0.0746703821844257
-0.0729296552548604
-0.0712236809874955
-0.0695517692186911
-0.0679132435815042
-0.0663074412296218
-0.0647337125668095
-0.0676570256218536
-0.0660540029006871
-0.0644830140135753
-0.0629434231797443
-0.0614346073264507
-0.0599559558346954
-0.0585068702900067
-0.0570867642382211
-0.0556950629461284
-0.0543312031669387
-0.0689668703725612
-0.0673296198412103
-0.0657251404924715
-0.0641527819140908
-0.0626119066929203
-0.0611018901548093
-0.0596221201096867
-0.0581719966017342
-0.0567509316645705
-0.0553583490813292
-0.05135133362643
-0.0500682007775186
-0.0488108057508772
-0.0475786386713306
-0.0463711998507499
-0.0451879995841757
-0.0440285579500159
-0.0428924046142534
-0.041779078638557
-0.0406881282922349
-0.0427913057063627
-0.0416787577484197
-0.0405885850732286
-0.0395203449850214
-0.038473603630111
-0.0374479358199356
-0.0364429248576119
-0.0354581623679771
-0.0344932481310245
-0.033547789918666
0.00182767982388832
0.00202916967270639
0.00222646688828654
0.00241965106318709
0.00260880021078513
0.00279399079698983
0.00297529777129135
0.00315279459722184
0.00332655328217868
0.00349664440667219
0.0375152388458151
0.0369842372426668
0.0364636597002796
0.0359532940275802
0.0354529322907062
0.0349623707279676
0.0344814096665012
0.0340098534405993
0.0335475103116654
0.033094192389779
0.0655114177815719
0.0644019408957721
0.0633144297144792
0.0622484417582765
0.0612035434113114
0.0601793097441075
0.0591753243399324
0.0581911791246412
0.0572264741998882
0.056280817679724
0.0682538285480447
0.0670806760083806
0.0659307350571012
0.0648035386002324
0.0636986289003598
0.0626155573895861
0.0615538844862176
0.0605131794151141
0.0594930200316579
0.0584929926491959
0.111259958655273
0.109197175064923
0.107175381833878
0.105193757107299
0.103251495482212
0.101347807678545
0.0994819202167267
0.0976530751017393
0.095860529513482
0.0941035555033363
0.112149982237407
0.11005677293241
0.108005147883297
0.105994273752033
0.10402333388245
0.102091527966669
0.100198071718181
0.0983421965514708
0.0965231492680481
0.0947401917487536
0.0870754158697284
0.085483783873082
0.0839236871905413
0.0823944935431484
0.0808955833132181
0.0794263492911362
0.0779861964272683
0.0765745415887871
0.0751908133214023
0.07383445161582
0.0687914490215888
0.0675643104827124
0.0663614013991527
0.0651822357221867
0.064026337140259
0.0628932388842927
0.0617824835368737
0.0606936228452639
0.0596262175381597
0.0585798371460911
0.0764939917659291
0.0751001379282421
0.0737338389590505
0.0723945426993176
0.07108170804959
0.0697948047487991
0.0685333131575696
0.0672967240457858
0.0660845383844624
0.0648962671417408
0.0446360559369552
0.0438856381930428
0.0431498917104811
0.0424285219317966
0.0417212402076217
0.0410277636785743
0.0403478151595067
0.0396811230260319
0.0390274211033628
0.0383864485573397
0.0150644343634561
0.0149133730817717
0.0147649794232443
0.014619198793973
0.0144759777095409
0.0143352637728533
0.0141970056524379
0.0140611530611743
0.0139276567354401
0.0137964684146645
-0.0273712162554425
-0.0266566401298718
-0.0259567315142561
-0.0252711986292091
-0.0245997555124084
-0.0239421219022624
-0.0232980231237754
-0.0226671899768398
-0.0220493586266635
-0.02144427049641
-0.0164813039190648
-0.0159905389998016
-0.0155099790897104
-0.015039421418372
-0.0145786672518824
-0.014127521812096
-0.013685794197464
-0.0132532973054715
-0.0128298477566133
-0.0124152658198895
-0.0723695991322195
-0.0707348505390328
-0.0691332149082129
-0.0675640318655013
-0.0660266542241033
-0.0645204477208416
-0.0630447907576581
-0.0615990741482584
-0.0601827008698237
-0.0587950858196749
-0.0771235959895513
-0.0753881883042311
-0.0736879298703599
-0.0720221196284001
-0.0703900705192346
-0.0687911092040494
-0.0672245757899077
-0.0656898235607635
-0.0641862187138891
-0.0627131401015433
-0.0934141327041189
-0.0913413414098301
-0.0893104737854529
-0.0873206934699269
-0.0853711808076874
-0.0834611325144898
-0.0815897613499494
-0.0797562957965887
-0.077959979745323
-0.0762000721872624
-0.103164086772674
-0.100886726798835
-0.0986554095343983
-0.0964692163722418
-0.0943272470547569
-0.0922286193067769
-0.0901724684758936
-0.0881579471799228
-0.0861842249614568
-0.0842504879493031
-0.0708640384688284
-0.069243477439338
-0.0676558415702218
-0.0661004742343732
-0.0645767319141655
-0.0630839839392312
-0.0616216122294517
-0.0601890110431178
-0.0587855867301066
-0.0574107574900022
-0.0403461920346544
-0.039349065862929
-0.0383724097483977
-0.0374158157391431
-0.0364788840189672
-0.0355612227446471
-0.0346624478864399
-0.0337821830717751
-0.0329200594320742
-0.0320757154526348
-0.0306833304948917
-0.0298850819626875
-0.0291033392253137
-0.0283377733743677
-0.0275880620559583
-0.0268538893395842
-0.0261349455896465
-0.025430927339503
-0.0247415371680741
-0.0240664835788991
0.00148767837403163
0.0016246035780938
0.0017582449781699
0.00188866758829676
0.00201593514583998
0.00214011013704329
0.00226125382207165
0.00237942625955334
0.00249468633061589
0.00260709176244944
0.0335704685922433
0.0330448350733086
0.0325291714638567
0.0320232783216898
0.0315269602167998
0.0310400256511318
0.03056228697994
0.0300935603347305
0.0296336655477276
0.0291824260778615
0.0708380306539098
0.0695405752746439
0.0682685378979624
0.0670214108734424
0.0657986967264534
0.0645999079546247
0.0634245668283793
0.0622722051954518
0.0611423642893421
0.060034594541559
0.0841428568189411
0.0825614345303052
0.0810111243118854
0.0794913051701585
0.0780013685537089
0.0765407181043738
0.0751087694133243
0.0737049497820657
0.0723286979881816
0.0709794640557906
0.101061184781974
0.0991205927481218
0.0972183178947965
0.0953535957352507
0.0935256770939592
0.0917338278003506
0.0899773283886596
0.0882554738037804
0.0865675731130118
0.0849129492235434
0.104774259975482
0.102743807032752
0.100753493655102
0.0988025193862363
0.0968900997996904
0.0950154661781717
0.0931778651993405
0.0913765586278146
0.0896108230133912
0.0878799493952833
0.0880394691090061
0.0863381967161914
0.0846705050391137
0.0830357250257343
0.0814332010251135
0.0798622905193156
0.0783223638607176
0.0768128040144802
0.075333006306284
0.0738823781750106
0.0980508401082538
0.0961322186709523
0.0942515581618757
0.0924081024385117
0.0906011105002449
0.0888298561854448
0.0870936278745873
0.085391728199351
0.0837234737575052
0.0820881948335099
0.0668342624418443
0.065542821995539
0.0642768268840221
0.0630357712948069
0.0618191595500583
0.0606265059038442
0.0594573343433886
0.0583111783943302
0.0571875809298987
0.0560860939838506
0.0174981156106107
0.0172084541066972
0.0169242242785757
0.0166453203039154
0.0163716384949133
0.0161030772555186
0.0158395370395255
0.0155809203095139
0.0153271314965764
0.0150780769608971
0.0170621520478171
0.0167766089687014
0.0164964446978573
0.0162215546752087
0.015951836449176
0.0156871896344093
0.0154275158704031
0.0151727187808994
0.0149227039341326
0.0146773788038672
-0.0348442497866586
-0.0340702133909225
-0.0333119717769357
-0.0325692064726546
-0.0318416053583483
-0.0311288625396564
-0.0304306782231123
-0.029746758594225
