0.00356518581481412
0.00356340367490813
0.00356162247039173
0.00355984224531622
0.00355806304368642
0.00355628490945955
0.00355450788654421
0.00355273201879925
0.00355095735003274
0.00354918392400087
0.0556930131245724
0.055665176140146
0.0556373542107221
0.0556095480241482
0.0555817582675341
0.0555539856272357
0.0555262307888381
0.0554984944371386
0.0554707772561302
0.0554430799289847
0.0517937913420736
0.0517679461145293
0.0517421218350771
0.0517163191386897
0.0516905386594831
0.0516647810307011
0.0516390468846997
0.0516133368529319
0.0515876515659325
0.0515619916533024
0.0960295254886987
0.0959816772793402
0.0959338680009696
0.095886098829057
0.0958383709374823
0.0957906854985073
0.0957430436827463
0.0956954466591385
0.095647895594919
0.0956003916555909
0.0998080126302674
0.0997584794325092
0.0997089979618706
0.0996595694292197
0.0996101950434959
0.099560876011681
0.09951161353877
0.0994624088277421
0.099413263079531
0.099364177492997
0.0993110269670901
0.0992620673546739
0.099213171486699
0.0991643405533898
0.0991155757427526
0.0990668782405474
0.0990182492302591
0.0989696898930691
0.0989212014078271
0.0988727849510225
0.0895532929781046
0.0895096584944057
0.0894660971217201
0.0894226099122613
0.089379197915863
0.0893358621799546
0.0892926037495357
0.0892494236671513
0.0892063229728673
0.0891633027042452
0.0864348825494936
0.0863933686341901
0.0863519375373789
0.0863105902531774
0.0862693277731114
0.0862281510860914
0.0861870611783893
0.0861460590336152
0.0861051456326937
0.0860643219538412
0.0692353458647079
0.0692030965420916
0.06917093545502
0.0691388633632109
0.0691068810237781
0.0690749891912134
0.0690431886173697
0.069011480051443
0.0689798642399551
0.0689483419267364
0.0387325262163706
0.0387162814788444
0.0387001245353499
0.0386840557458228
0.0386680754678157
0.03865218405649
0.0386363818646087
0.0386206692425285
0.0386050465381921
0.0385895140971212
0.0112044933455588
0.0112028237696723
0.0112012382981207
0.0111997369284892
0.011198319656262
0.0111969864748239
0.0111957373754612
0.0111945723473628
0.011193491377622
0.0111924944512377
-0.0189127695623668
-0.0188985501049903
-0.0188842545602227
-0.0188698833233967
-0.0188554367915394
-0.0188409153633611
-0.0188263194392447
-0.0188116494212351
-0.018796905713028
-0.0187820887199591
-0.0520549635893778
-0.052023361596354
-0.0519916962778398
-0.0519599684569235
-0.0519281789578441
-0.0518963286059701
-0.0518644182277786
-0.0518324486508334
-0.0518004207037645
-0.0517683352162467
-0.0589985305427422
-0.0589627022214316
-0.0589268207601539
-0.0588908870822831
-0.0588549021120364
-0.0588188667744511
-0.0587827819953609
-0.0587466487013727
-0.0587104678198423
-0.0586742402788517
-0.0896030132677292
-0.0895512166062152
-0.0894993841978339
-0.0894475173559377
-0.0893956173940834
-0.0893436856259988
-0.08929172336555
-0.0892397319267085
-0.0891877126235182
-0.0891356667700627
-0.109094034039659
-0.109031936351314
-0.108969821304956
-0.108907690461746
-0.10884554538246
-0.10878338762745
-0.108721218756605
-0.108659040329311
-0.108596853904414
-0.10853466104018
-0.0968751909657822
-0.0968187870577506
-0.0967623783385703
-0.0967059662205088
-0.0966495521152125
-0.0965931374336721
-0.0965367235861872
-0.0964803119823315
-0.0964239040309181
-0.0963675011399647
-0.0475770698461533
-0.0475450421219835
-0.0475130108909692
-0.0474809769554423
-0.0474489411174013
-0.0474169041784913
-0.0473848669399842
-0.0473528302027588
-0.0473207947672812
-0.0472887614335846
-0.0466124462187433
-0.0465807415474061
-0.0465490412061166
-0.0465173459850193
-0.0464856566737354
-0.0464539740613439
-0.0464222989363618
-0.046390632086725
-0.0463589742997685
-0.0463273263622073
-0.0227801978656679
-0.0227603267421253
-0.0227404616545038
-0.0227206030962883
-0.0227007515605538
-0.0226809075399531
-0.0226610715267051
-0.0226412440125825
-0.0226214254888997
-0.0226016164465008
0.0104740525038717
0.0104773173783334
0.0104805799747133
0.0104838402126057
0.0104870980117041
0.0104903532918033
0.010493605972801
0.0104968559746997
0.0105001032176092
0.010503347621748
0.0432713029605001
0.0432581632544383
0.0432450290673366
0.0432319007247081
0.0432187785517571
0.0432056628733713
0.0431925540141134
0.0431794522982136
0.0431663580495615
0.0431532715916982
0.0745915190011335
0.0745627274274443
0.0745339528648084
0.0745051960239051
0.0744764576146156
0.0744477383460056
0.0744190389263078
0.074390360062905
0.0743617024623125
0.0743330668301608
0.0972818516701238
0.0972417763087878
0.0972017310558324
0.0971617168970859
0.0971217348171072
0.0970817857991607
0.0970418708251935
0.0970019908758106
0.0969621469302514
0.0969223399663663
0.114803074078282
0.114754386031084
0.114705742592299
0.114657144955406
0.114608594312146
0.114560091852487
0.114511638764601
0.114463236234828
0.114414885447655
0.114366587585681
0.137200565722009
0.137140939047077
0.137081374837103
0.137021874549593
0.136962439639725
0.136903071560317
0.13684377176179
0.136784541692133
0.13672538279687
0.136666296519021
0.118478158179698
0.11842828371509
0.118378481425107
0.118328752518413
0.118279098201237
0.118229519677337
0.118180018147976
0.118130594811895
0.118081250865277
0.118031987501725
0.116772907090424
0.116724413259021
0.116676003258278
0.116627678256233
0.11657943941822
0.116531287906833
0.116483224881904
0.116435251500475
0.116387368916767
0.116339578282155
0.0900164710936198
0.0899820021660111
0.0899476217304549
0.0899133306020106
0.089879129593098
0.0898450195134781
0.0898110011702349
0.0897770753677558
0.0897432429077133
0.0897095045890461
0.058396100094592
0.058378188350536
0.058360364921285
0.058342630208166
0.0583249846100881
0.0583074285235337
0.0582899623425497
0.058272586458739
0.0582553012612521
0.058238107136778
0.0190368818870295
0.0190394581412207
0.0190421163329938
0.0190448563549522
0.0190476780977076
0.0190505814498841
0.0190535662981217
0.0190566325270801
0.0190597800194427
0.0190630086559205
-0.00963092543120215
-0.00961318989670113
-0.00959538111697633
-0.00957749957374849
-0.00955954575031618
-0.00954152013154293
-0.00952342320384432
-0.00950525545517508
-0.00948701737501608
-0.00946870945436137
-0.0341430275521331
-0.0341122382192889
-0.0340813870064453
-0.0340504747156204
-0.0340195021499581
-0.0339884701137072
-0.0339573794122009
-0.0339262308518363
-0.0338950252400532
-0.0338637633853138
-0.0652652960522735
-0.065218211709953
-0.0651710818029541
-0.0651239075320039
-0.0650766900983386
-0.0650294307036724
-0.0649821305501676
-0.0649347908404043
-0.0648874127773503
-0.0648399975643303
-0.0439997266559193
-0.0439626345221069
-0.0439255033947801
-0.0438883342214751
-0.0438511279502052
-0.043813885529437
-0.0437766079080668
-0.0437392960353961
-0.0437019508611078
-0.0436645733352428
-0.0591629507172794
-0.059117745420555
-0.0590725147003707
-0.0590272596999182
-0.0589819815624243
-0.0589366814311228
-0.0588913604492258
-0.0588460197598948
-0.0588006605062127
-0.058755283831155
-0.0695401184076797
-0.0694892965805752
-0.0694384636015935
-0.0693876207468133
-0.0693367692919222
-0.0692859105121852
-0.0692350456824129
-0.0691841760769297
-0.0691333029695425
-0.069082427633509
-0.0568872312911497
-0.0568424259321793
-0.0567976189744476
-0.0567528115386454
-0.0567080047449152
-0.0566631997128235
-0.0566183975613333
-0.0565735994087761
-0.0565288063728245
-0.0564840195704644
-0.0251219357520879
-0.0250928194379127
-0.025063704487243
-0.0250345916270876
-0.0250054815840395
-0.0249763750842582
-0.0249472728534516
-0.0249181756168581
-0.0248890840992288
-0.0248599990248096
0.013040474598582
0.0130506137301299
0.0130607541851705
0.013070895709595
0.0130810380493944
0.0130911809506667
0.0131013241596225
0.0131114674225917
0.0131216104860296
0.0131317530965234
0.0347389835953343
0.034738328740142
0.0347376783389981
0.034737032405932
0.0347363909548545
0.0347357539995575
0.0347351215537134
0.0347344936308752
0.0347338702444762
0.0347332514078294
0.056390503966144
0.0563790680869458
0.0563676424790404
0.0563562274228615
0.0563448231984391
0.0563334300853925
0.0563220483629233
0.0563106783098091
0.0562993202043964
0.0562879743245937
0.0888357465501398
0.0888081505377391
0.0887805761244384
0.0887530239886274
0.0887254948078
0.0886979892585375
0.0886705080164926
0.0886430517563726
0.0886156211519231
0.0885882168759119
0.120464832083896
0.120421534536629
0.12037827370065
0.120335050638854
0.120291866412664
0.120248722082001
0.120205618705258
0.120162557339276
0.120119539039318
0.120076564859043
0.147078115303874
0.14702171371401
0.146965366490524
0.146909075014565
0.1468528406652
0.146796664819375
0.14674054885189
0.146684494135357
0.146628502040174
0.146572573934488
0.140223345290495
0.140170695142372
0.140118111423178
0.140065595413968
0.140013148393467
0.139960771638032
0.139908466421629
0.139856234015799
0.139804075689626
0.139751992709709
0.145455788379649
0.145400982712272
0.145346257685865
0.145291614627899
0.145237054863131
0.145182579713576
0.145128190498473
0.145073888534252
0.145019675134505
0.144965551609957
0.117192762439107
0.117152678441882
0.11711268096198
0.117072770955839
0.117032949377232
0.116993217177243
0.116953575304251
0.116914024703898
0.116874566319078
0.116835201089903
0.100564906729053
0.100533844069557
0.100502873110679
0.100471994580658
0.100441209205059
0.100410517706757
0.10037992080592
0.10034941921999
0.10031901366367
0.100288704848903
0.074970385540504
0.0749529131743688
0.0749355330341301
0.0749182455080807
0.074901050982004
0.0748839498391667
0.0748669424603096
0.0748500292236397
0.074833210504822
0.0748164866769715
0.0270453200150181
0.0270526582794425
0.0270600800095496
0.0270675849781205
0.0270751729559694
0.0270828437119505
0.0270905970129645
0.0270984326239654
0.0271063503079678
0.0271143498260531
-0.00916789292045169
-0.00914158990786287
-0.00911521531088253
-0.00908876982449265
-0.00906225414509961
-0.00903566897051603
-0.00900901499994268
-0.00898229293395026
-0.00895550347446124
-0.00892864732473163
-0.00914098062944453
-0.00911387361692501
-0.0090867020945245
-0.00905946677360672
-0.00903216836677436
-0.00900480758785066
-0.00897738515186093
-0.00894990177501409
-0.0089223581746842
-0.00889475506939193
-0.0355898800654469
-0.0355488021123064
-0.0355076738276557
-0.0354664962646022
-0.0354252704769587
-0.0353839975192162
-0.0353426784465179
-0.0353013143146318
-0.0352599061799246
-0.0352184550993346
-0.0352507789948672
-0.0352092082964272
-0.0351675978454502
-0.0351259487018064
-0.0350842619258035
-0.0350425385781597
-0.0350007797199769
-0.0349589864127144
-0.0349171597181617
-0.034875300698412
-0.0511110915389109
-0.0510610342838499
-0.0510109521621647
-0.0509608464380229
-0.0509107183755503
-0.0508605692387989
-0.0508104002917156
-0.0507602127981106
-0.0507100080216259
-0.0506597872257039
-0.0481107262683324
-0.0480617263181021
-0.0480127134816375
-0.0479636889903922
-0.0479146540754953
-0.0478656099677213
-0.0478165578974592
-0.0477674990946818
-0.0477184347889154
-0.0476693662092094
-0.0338707483417199
-0.033828547925291
-0.0337863433114663
-0.0337441355571934
-0.03370192571897
-0.0336597148528177
-0.033617504014256
-0.033575294258276
-0.0335330866393145
-0.0334908822112276
0.00146912788512428
0.00149386830413332
0.00151861153574763
0.00154335696013645
0.00156810395772402
0.00159285190920501
0.00161760019555981
0.00164234819806988
0.00166709529833305
0.00169184087827884
0.0290180749347126
0.0290291683449036
0.0290402655457378
0.0290513662579601
0.0290624702023677
0.0290735770998163
0.0290846866712273
0.0290957986375949
0.0291069127199929
0.0291180286395817
0.0645400416178252
0.0645334594273041
0.0645268875287181
0.0645203260811788
0.0645137752434569
0.0645072351739787
0.064500706030822
0.0644941879717127
0.0644876811540206
0.0644811857347559
0.107279319852341
0.107251450829376
0.107223604904223
0.107195782761309
0.107167985084124
0.107140212555205
0.107112465856121
0.107084745667451
0.107057052668775
0.107029387538651
0.122325082056565
0.122289814976533
0.122254581814798
0.122219383435012
0.122184220699526
0.12214909446937
0.12211400560423
0.12207895496243
0.122043943400907
0.122008971775195
0.121808330426834
0.121773524067821
0.121738760159107
0.121704039548348
0.121669363081699
0.121634731603786
0.12160014595769
0.121565606984925
0.121531115525416
0.121496672417482
0.155042162177466
0.154991032606013
0.154939962701524
0.154888953710597
0.154838006877689
0.154787123445077
0.154736304652836
0.154685551738803
0.154634865938551
0.154584248485357
0.174016001849827
0.173955786106105
0.173895647506735
0.17383558751624
0.173775607596448
0.173715709206454
0.173655893802587
0.173596162838372
0.173536517764498
0.173476960028784
0.144477323630285
0.144432411309192
0.144387583059167
0.14434283995861
0.144298183083252
0.144253613506132
0.144209132297574
0.144164740525153
0.144120439253679
0.144076229545166
0.14047416042046
0.140431915536547
0.14038976445113
0.140347708170835
0.140305747699414
0.140263884037723
0.140222118183698
0.140180451132333
0.140138883875653
0.140097417402694
0.104113165251604
0.104089870177849
0.104066669406499
0.104043563470287
0.104020552899314
0.103997638221029
0.103974819960222
0.10395209863901
0.103929474776828
0.103906948890414
0.0956659881964931
0.0956477680233724
0.0956296452036694
0.095611620141678
0.0955936932390466
0.0955758648947694
0.0955581355051782
0.0955405054639333
0.0955229751620152
0.0955055449877162
0.0569334541874161
0.0569354979041431
0.0569376327816297
0.0569398587209514
0.056942175620957
0.0569445833782724
0.0569470818873046
0.0569496710402453
0.0569523507270745
0.0569551208355644
0.0162276335030873
0.0162509441079792
0.016274334098315
0.016297802849813
0.0163213497365356
0.0163449741309049
0.0163686754037199
0.0163924529241726
0.016416306059865
0.0164402341768251
0.0106731377418412
0.0107001087268272
0.0107271512624928
0.0107542646371835
0.0107814481378303
0.010808701049968
0.010836022657754
0.0108634122439865
0.0108908690901235
0.0109183924763013
0.00543658970451857
0.00546699800194444
0.00549746922658974
0.00552800258541683
0.00555859728423166
0.00558925252770432
0.00561996751938942
0.00565074146174656
0.00568157355616088
0.00571246300296351
-0.0223966683243188
-0.0223516001127453
-0.022306484336956
-0.0222613221483283
-0.0222161146988238
-0.0221708631409591
-0.0221255686277769
-0.022080232312817
-0.0220348553500867
-0.0219894388940325
-0.0341143426140476
-0.034062767003433
-0.0340111585582841
-0.0339595185848881
-0.0339078483896668
-0.033856149279144
-0.0338044225599127
-0.0337526695386025
-0.0337008915218467
-0.03364908981625
0.00488316509672261
0.00491577493447323
0.0049484146377724
0.00498108337592003
0.00501378031790608
0.00504650463243148
0.00507925548792901
0.0051120320525843
0.00514483349435671
0.00517765898100029
-0.017279777654947
-0.0172356642910201
-0.017191535280707
-0.0171473917347551
-0.0171032347637191
-0.0170590654779337
-0.0170148849874855
-0.0169706944021858
-0.0169264948315426
-0.0168822873847332
0.0240190342687813
0.0240428307795384
0.0240666425607747
0.0240904690097404
0.0241143095236211
0.024138163499553
0.024162030334638
0.0241859094259589
0.0242098001705944
0.0242337019656343
0.0495769671185839
0.0495882327465063
0.0495995142592994
0.049610811367093
0.049622123779773
0.0496334512069887
0.0496447933581605
0.0496561499424871
0.0496675206689531
0.0496789052463361
0.0814208075558868
0.0814163577403175
0.0814119292258909
0.0814075221126924
0.0814031365002241
0.0813987724874023
0.0813944301725553
0.0813901096534216
0.0813858110271474
0.0813815343902848
0.106402574825937
0.106385832987449
0.106369119990272
0.106352436237773
0.106335782132386
0.106319158075606
0.10630256446798
0.106286001709092
0.106269470197561
0.106252970331024
0.120684453421499
0.120660795894243
0.12063717498961
0.120613591279751
0.120590045335603
0.120566537726876
0.12054306902204
0.12051963978831
0.120496250591634
0.12047290199668
0.163801126360258
0.163756190400014
0.163711308101713
0.163666480560415
0.163621708869266
0.163576994119474
0.16353233740028
0.163487739798934
0.163443202400667
0.163398726288667
0.174009012689061
0.173959336394595
0.173909727418888
0.173860186968341
0.173810716247047
0.173761316456753
0.173711988796842
0.173662734464295
0.173613554653667
0.173564450557058
0.162952520971307
0.162908851978119
0.162865259488869
0.162821744555034
0.162778308225637
0.162734951547213
0.162691675563789
0.16264848131686
0.16260536984536
0.162562342185644
0.200752214316074
0.200690245829014
0.200628374278112
0.200566601161548
0.200504927974302
0.200443356208112
0.200381887351446
0.20032052288946
0.200259264303966
0.200198113073395
0.174534488275572
0.17448635421452
0.174438325205766
0.17439040239753
0.174342586934807
0.174294879959348
0.17424728260963
0.174199796020828
0.174152421324791
0.174105159650013
0.137566868687932
0.137538077362676
0.137509392849685
0.137480815812896
0.137452346913237
0.137423986808613
0.137395736153892
0.137367595600889
0.137339565798355
0.137311647391957
0.0984862371740989
0.098477937356788
0.098469740674752
0.0984616472818113
0.0984536573291405
0.0984457709652666
0.0984379883360665
0.0984303095847655
0.098422734851935
0.0984152642754907
0.0736551415200002
0.0736602528925326
0.0736654623249237
0.0736707696386057
0.0736761746526696
0.0736816771838718
0.07368727704664
0.0736929740530793
0.0736987680129786
0.0737046587338171
0.0468542269191777
0.0468737353722311
0.0468933329486091
0.0469130191147788
0.0469327933352805
0.0469526550727421
0.0469726037878945
0.0469926389395861
0.0470127599847981
0.047032966378659
0.0230554439783238
0.0230878152851111
0.0231202639987197
0.0231527892705042
0.0231853902503558
0.0232180660867246
0.0232508159266429
0.0232836389157469
0.0233165341983003
0.0233495009172164
-0.00631043729193966
-0.00626248756195571
-0.00621447676521982
-0.00616640613087675
-0.00611827688892003
-0.00607009027015997
-0.00602184750619183
-0.00597354982936381
-0.00592519847274512
-0.00587679467009396
-0.0194384093152172
-0.0193831010188716
-0.0193277475524247
-0.0192723503202361
-0.0192169107270167
-0.0191614301777926
-0.0191059100778688
-0.0190503518327928
-0.0189947568483187
-0.018939126530371
-0.0190752273732416
-0.0190194347484414
-0.0189636110589124
-0.0189077577132672
-0.0188518761201045
-0.0187959676879732
-0.0187400338253363
-0.018684075940534
-0.0186280954417479
-0.0185720937369644
-0.0166140678193905
-0.0165589786861429
-0.0165038720702981
-0.0164487493551976
-0.0163936119238305
-0.0163384611587982
-0.0162832984422786
-0.0162281251559902
-0.0161729426811563
-0.0161177523984694
0.0196668513221041
0.0197041929170846
0.0197415475556258
0.0197789143009877
0.019816292216674
0.0198536803664572
0.0198910778144032
0.0199284836248969
0.0199658968626664
0.020003316592809
0.0223276108458102
0.0223638976136827
0.0224001886716824
0.0224364831148883
0.0224727800388435
0.0225090785395796
0.0225453777136416
0.0225816766581117
0.0226179744706343
0.0226542702494405
0.0668330255828692
0.0668472489690106
0.0668614792014486
0.0668757159264282
0.0668899587903279
0.0669042074396709
0.0669184615211365
0.0669327206815713
0.0669469845680008
0.0669612528276408
0.114060706343662
0.114051445684331
0.114042200694744
0.114032971604776
0.114023758643934
0.11401456204136
0.11400538202582
0.11399621882571
0.113987072669049
0.113977943783478
0.114743163782382
0.114733683053086
0.114724220478672
0.114714776294815
0.114705350736791
0.114695944039478
0.114686556437347
0.114677188164469
0.114667839454507
0.114658510540716
0.157918212066989
0.157887294436331
0.157856408651539
0.157825555478852
0.15779473568353
0.157763950029838
0.157733199281035
0.157702484199357
0.157671805546005
0.15764116408113
0.169435327407429
0.169398851714756
0.169362418587016
0.169326028926131
0.169289683632755
0.169253383606253
0.169217129744684
0.169180922944789
0.169144764101971
0.169108654110282
0.187919146014783
0.187873715520626
0.1878283414962
0.187783025062855
0.187737767340263
0.187692569446399
0.187647432497519
0.187602357608141
0.187557345891021
0.18751239845714
0.181932476856745
0.18189042813154
0.181848445559416
0.181806530175645
0.181764683013691
0.181722905105196
0.181681197479961
0.181639561165931
0.181597997189175
0.18155650657387
0.208815021343622
0.208760034019404
0.208705130280278
0.208650311480013
0.208595578970045
0.208540934099462
0.208486378214976
0.208431912660898
0.208377538779119
0.208323257909086
0.178336375490945
0.178297247197475
0.178258208065823
0.178219259055586
0.178180401124194
0.1781416352269
0.178102962316769
0.178064383344663
0.17802589925923
0.177987511006894
0.154473064763931
0.154446606102552
0.154420239940699
0.154393966925716
0.154367787702977
0.154341702915878
0.154315713205841
0.154289819212306
0.154264021572731
0.15423832092259
0.128602406336293
0.128589703465172
0.128577092758674
0.128564574527886
0.128552149082237
0.128539816729512
0.128527577775855
0.128515432525779
0.128503381282172
0.128491424346308
0.0968799613155178
0.0968839896777775
0.0968881049512913
0.0968923070405227
0.0968965958487796
0.0969009712782345
0.0969054332299444
0.0969099816038713
0.0969146162989028
0.0969193372128733
0.0578668078587546
0.0578912246054681
0.057915717011134
0.0579402844869977
0.0579649264438698
0.057989642292161
0.0580144314419167
0.058039293302852
0.0580642272843874
0.0580892327956846
0.0404861066762111
0.0405200653350623
0.0405540891248971
0.0405881772363911
0.040622328860374
0.0406565431878725
0.0406908194101536
0.0407251567187681
0.0407595543055941
0.0407940113628818
0.0313188490225092
0.0313581762298863
0.031397557992119
0.0314369933858907
0.0314764814886059
0.0315160213784395
0.0315556121343858
0.0315952528363085
0.0316349425649903
0.0316746804021833
0.0291820780116012
0.0292231751871426
0.0292643170583601
0.0293055026801036
0.0293467311084825
0.0293880014009184
0.0294293126161989
0.0294706638145318
0.0295120540575987
0.0295534824086104
0.00494371925972781
0.00499754350474112
0.00505139658937004
0.00510527727890476
0.00515918434076471
0.00521311654456294
0.00526707266217082
0.0053210514677833
0.00537505173798425
0.00542907225181255
-0.0136245983686606
-0.0135609895931031
-0.013497369234653
-0.0134337387398789
-0.0133700995523097
-0.0133064531123609
-0.0132428008572594
-0.0131791442209692
-0.013115484634116
-0.0130518235239114
0.040560380894459
0.0405972733161767
0.0406341770502666
0.0406710913455827
0.0407080154540792
0.0407449486308731
0.040781890134306
0.0408188392260076
0.0408557951709589
0.0408927572375562
0.0483881592729221
0.048421403132383
0.0484546528966686
0.0484879079406405
0.0485211676428051
0.0485544313853781
0.048587698554349
0.048620968539547
0.048654240734707
0.0486875145375358
0.0922938611710362
0.0923053553991406
0.0923168608847065
0.092328377580392
0.0923399054425994
0.0923514444315311
0.0923629945112472
0.0923745556497229
0.0923861278189062
0.092397710994777
0.120231482635788
0.120229180215813
0.120226896054892
0.1202246304895
0.12022238386008
0.120220156511103
0.120217948791117
0.120215761052804
0.120213593653033
0.120211446952921
0.141041309676454
0.141028792129054
0.141016301856339
0.141003839494377
0.140991405683497
0.140979001068347
0.140966626297943
0.140954282025728
0.140941968909623
0.140929687612088
0.162762114306476
0.162738979089775
0.162715883438148
0.162692828302686
0.162669814639022
0.162646843407382
0.162623915572643
0.162601032104386
0.162578193976949
0.162555402169487
0.207608781339183
0.20756355279433
0.207518385362899
0.207473280600838
0.207428240068616
0.207383265331264
0.207338357958427
0.207293519524411
0.207248751608228
0.207204055793652
0.200284012632017
0.200242902628166
0.200201867702407
0.200160909373104
0.200120029163727
0.20007922860291
0.200038509224506
0.199997872567643
0.199957320176788
0.199916853601798
0.207430879863623
0.207386813348966
0.207342839314749
0.207298959426353
0.207255175354761
0.207211488776617
0.207167901374291
0.207124414835939
0.207081030855568
0.207037751133097
0.219252492635083
0.219203299152047
0.219154218278889
0.219105251891302
0.219056401871061
0.219007670106094
0.218959058490543
0.218910568924834
0.218862203315742
0.218813963576459
0.199338845049587
0.199300573850352
0.199262429202674
0.199224412806065
0.19918652636706
0.199148771599289
0.19911115022356
0.19907366396794
0.19903631456783
0.198999103766047
0.15799166375197
0.157975215384361
0.157958900139558
0.157942719284643
0.157926674095063
0.157910765854731
0.157894995856119
0.157879365400359
0.157863875797344
0.157848528365826
0.144848311420669
0.144839743180935
0.144831317716266
0.144823036221419
0.144814899900687
0.144806909968008
0.144799067647074
0.144791374171436
0.144783830784616
0.144776438740217
0.11513899006149
0.115146715843342
0.115154589015997
0.115162610508374
0.115170781260417
0.115179102223214
0.115187574359118
0.115196198641875
0.115204976056742
0.115213907600613
0.0852133503870546
0.0852375942356277
0.0852619874013859
0.0852865305582152
0.0853112243926537
0.0853360696040267
0.085361066904582
0.0853862170196257
0.0854115206876586
0.0854369786605117
0.0634569225849876
0.0634936915154452
0.0635306113139921
0.0635676825152501
0.0636049056681445
0.0636422813360483
0.0636798100969275
0.0637174925434852
0.063755329283307
0.0637933209390062
0.0249388993084989
0.0249966440672613
0.0250545354972049
0.0251125738019507
0.0251707592013816
0.0252290919317996
0.0252875722460828
0.0253462004138428
0.025404976721582
0.0254639014728503
0.0218701697910493
0.0219312183474659
0.0219924154035395
0.0220537612874458
0.0221152563452395
0.0221769009410116
0.0222386954570463
0.0223006402939782
0.0223627358709483
0.0224249826257608
0.00878573485272423
0.00885513443417986
0.00892468302555527
0.00899438097156449
0.00906422863653896
0.00913422640458559
0.00920437467974428
0.00927467388614502
0.00934512446816438
0.00941572689058146
0.0367851049752341
0.0368423667121334
0.0368997889700105
0.0369573726341027
0.0370151186104644
0.0370730278261102
0.0371311012291586
0.0371893397889738
0.037247744496307
0.0373063163634372
0.0567483766617348
0.0567975967748789
0.0568469923007728
0.0568965645786935
0.0569463149698823
0.0569962448576734
0.0570463556476218
0.0570966487676305
0.0571471256680759
0.0571977878219328
0.0663063315162152
0.0663528409903252
0.066399542650034
0.0664464381718474
0.0664935292553554
0.0665408176233469
0.0665883050219225
0.0666359932206056
0.0666838840124528
0.0667319792141618
0.101188442587621
0.101219752445273
0.10125128133338
0.101283031589405
0.101315005574522
0.101347205673705
0.101379634295812
0.101412293873674
0.101445186864174
0.101478315748329
0.136453815223994
0.136469956809188
0.136486351044368
0.136503000939609
0.136519909529037
0.136537079870893
0.136554515047588
0.136572218165757
0.136590192356312
0.136608440774488
0.166270870577531
0.166274858828838
0.166279138697499
0.166283713802782
0.16628858778811
0.166293764321086
0.166299247093515
0.166305039821426
0.166311146245093
0.166317570129046
0.196105959666363
0.196098142823516
0.196090662693969
0.196083523507377
0.196076729517305
0.19607028500122
0.196064194260474
0.19605846162029
0.196053091429744
0.196048088061746
0.211072384058283
0.211060614994835
0.211049229958479
0.211038233602863
0.211027630605109
0.211017425665773
0.211007623508793
0.210998228881438
0.210989246554251
0.21098068132099
0.232264867342855
0.232246507312037
0.232228584481473
0.232211104000195
0.232194071039824
0.232177490794475
0.232161368480666
0.232145709337226
0.232130518625192
0.232115801627707
0.22090753383185
0.220899375793337
0.220891704513384
0.220884525224126
0.220877843179367
0.220871663654464
0.220865991946187
0.220860833372595
0.220856193272891
0.220852077007284
0.23449726727067
0.234487392182759
0.234478060715113
0.234469278479093
0.234461051106109
0.234453384247444
0.234446283574082
0.234439754776518
0.234433803564571
0.234428435667199
0.22834963720854
0.228348489440751
0.228347940693576
0.22834799669543
0.228348663192904
0.228349945950546
0.228351850750636
0.228354383392952
0.228357549694539
0.228361355489462
0.193003887547026
0.19302666636405
0.193050092998441
0.193074172912916
0.193098911586394
0.193124314513731
0.193150387205456
0.193177135187497
0.193204564000901
0.19323267920155
0.168093742486406
0.168135827861146
0.168178609773667
0.168222093525271
0.168266284430919
0.168311187818919
0.168356809030613
0.168403153420054
0.168450226353675
0.16849803320996
0.157869408038434
0.157924036150992
0.157979411589188
0.158035539644319
0.158092425618114
0.158150074822365
0.15820849257856
0.158267684217499
0.158327655078914
0.158388410511076
0.106916108015623
0.107004209042178
0.107093097210726
0.107182777262927
0.107273253947608
0.107364532020355
0.107456616243094
0.107549511383668
0.107643222215406
0.107737753516688
0.0845801136193461
0.0846879237564774
0.0847965626233002
0.0849060347265936
0.085016344576215
0.0851274966846328
0.0852394955664543
0.0853523457379453
0.0854660517165452
0.0855806180203745
0.0701647945775085
0.0702888587402425
0.0704137927067438
0.0705396008009105
0.0706662873449711
0.0707938566589595
0.0709223130601844
0.0710516608626913
0.07118190437672
0.0713130479081538
0.0418049445366016
0.0419527173097458
0.0421013952096019
0.0422509821527763
0.0424014820490647
0.0425528988008747
0.042705236302642
0.0428584984402405
0.0430126890903866
0.0431678121200368
0.0507984737758155
0.0509517367718075
0.051105945644602
0.051261104308335
0.0514172166641865
0.0515742865997409
0.0517323179883417
0.0518913146884399
0.0520512805429375
0.0522122193785243
0.0667772786892904
0.0669329751571882
0.0670896597611823
0.0672473364343413
0.0674060090899368
0.0675656816207437
0.0677263578983344
0.0678880417723679
0.0680507370698741
0.0682144475945324
0.0761744385643433
0.07633629421707
0.0764991784058182
0.0766630949298684
0.0768280475613665
0.0769940400445702
0.0771610760950913
0.077329159399132
0.0774982936127176
0.0776684823609246
0.0986229376070684
0.0987848572086444
0.0989478474794302
0.0991119121696921
0.0992770549945498
0.0994432796331721
0.0996105897279686
0.0997789888837777
0.0999484806670505
0.100119068605031
0.110752326103641
0.110919887316137
0.111088557766359
0.111258340945717
0.111429240302126
0.111601259239165
0.111774401115225
0.111948669242662
0.112124066886949
0.112300597265811
0.149115042815503
0.149275534386969
0.149437177663456
0.149599976115803
0.149763933162311
0.149929052167868
0.150095336443061
0.150262789243298
0.150431413767914
0.150601213159287
0.173278316701042
0.173439224817368
0.173601322781816
0.173764613778106
0.173929100928246
0.174094787291627
0.174261675864122
0.174429769577182
0.174599071296928
0.17476958382325
0.214129033308176
0.214282386695448
0.214436969164115
0.214592783724286
0.214749833314804
0.214908120802326
0.215067648980406
0.215228420568584
0.215390438211468
0.215553704477824
0.251891850804451
0.252039539497953
0.252188493547841
0.252338715657359
0.252490208448894
0.252642974463055
0.252797016157763
0.252952335907339
0.2531089360016
0.253266818644947
0.264531657837882
0.264686560421617
0.264842754559921
0.265000242243765
0.265159025374079
0.265319105760857
0.265480485122276
0.265643165083809
0.265807147177346
0.265972432840323
0.262810526721299
0.262980087278703
0.263150954269137
0.263323128702424
0.263496611489664
0.263671403442396
0.263847505271753
0.264024917587629
0.264203640897848
0.264383675607347
0.294378527827128
0.294546283169617
0.294715358322803
0.294885753640323
0.295057469368512
0.295230505645611
0.29540486250098
0.295580539854318
0.295757537514893
0.295935855180777
0.252656706719656
0.252859386912693
0.253063374128376
0.253268667075535
0.253475264348674
0.253683164427262
0.253892365675049
0.254102866339374
0.254314664550496
0.254527758320925
0.240030158613825
0.240253191190261
0.240477508790589
0.240703108768085
0.240929988355289
0.241158144663403
0.241387574681699
0.24161827527694
0.24185024319281
0.242083475049356
0.214582205562839
0.214831819020318
0.215082678254408
0.21533477904255
0.215588117036287
0.21584268776079
0.216098486614383
0.216355508868094
0.216613749665207
0.216873204020835
0.188777909897722
0.189053950276435
0.189331181046168
0.189609596354934
0.189889190220988
0.190169956532485
0.190451889047148
0.190734981391961
0.191019227062857
0.191304619424445
0.168454682205404
0.168753912810498
0.169054263339208
0.169355726342371
0.169658294238584
0.169961959314008
0.170266713722201
0.170572549483948
0.170879458487124
0.171187432486564
0.112994279535188
0.113333601917285
0.113673948411758
0.11401530951745
0.11435767560052
0.114701036894426
0.11504538349993
0.115390705385117
0.115736992385425
0.116084234203702
0.102445121403922
0.102801233308917
0.103158264675833
0.103516204505186
0.103875041665599
0.104234764893961
0.104595362795607
0.104956823844511
0.105319136383498
0.105682288624478
0.091115215574876
0.0914874749625174
0.091860533987523
0.092234380156311
0.0926090008460012
0.092984383304759
0.0933605146521578
0.0937373818795604
0.0941149718505179
0.0944932713011887
0.111572195295287
0.111943525564197
0.112315529142921
0.112688192468945
0.113061501854517
0.113435443487172
0.113810003430278
0.1141851676236
0.114560921883883
0.114937251905454
0.11699686620724
0.117373463200163
0.117750592750651
0.11812824009056
0.118506390332604
0.118885028471072
0.119264139382567
0.119643707826761
0.120023718447168
0.120404155771938
0.135750838611951
0.136124601456932
0.136498747833331
0.13687326200109
0.137248128108851
0.13762333019486
0.137998852187895
0.138374677908206
0.138750791068477
0.139127175274811
0.163248562826661
0.163613570164783
0.16397880496773
0.164344250718855
0.164709890799811
0.165075708491639
0.165441686975872
0.165807809335666
0.166174058556937
0.166540417529528
0.206183139678431
0.206530033300051
0.206876995082808
0.207224008029542
0.207571055052595
0.207918118975073
0.208265182532124
0.208612228372233
0.208959239058539
0.209306197070163
0.226342444588869
0.226680901799899
0.22701925766185
0.227357494537664
0.227695594712967
0.228033540397505
0.228371313726589
0.228708896762557
0.229046271496258
0.229383419848547
0.248829452850473
0.249156541793577
0.249483354726706
0.249809873542146
0.250136080069669
0.250461956078113
0.250787483276992
0.251112643318109
0.251437417797186
0.251761788255515
0.286562308648297
0.286868581574046
0.287174403838559
0.287479757208149
0.287784623402701
0.288088984097389
0.288392820924412
0.288696115474743
0.288998849299888
0.289301003913663
0.311571616728175
0.311861575582316
0.312150905322286
0.312439587600576
0.312727604040754
0.313014936239305
0.313301565767484
0.313587474173178
0.313872642982778
0.314157053703064
0.327480881852813
0.327757202405748
0.328032712712354
0.328307394381131
0.328581229010363
0.32885419819006
0.329126283503906
0.329397466531209
0.329667728848871
0.329937052033357
0.350089436334677
0.350346886507533
0.350603347510736
0.350858801184555
0.351113229378533
0.35136661395349
0.351618936783544
0.351870179758126
0.352120324784007
0.352369353787328
0.332081554762991
0.332338562824937
0.332594395391441
0.332849034232785
0.33310246114911
0.333354657972476
0.33360560656893
0.333855288840567
0.334103686727607
0.334350782210465
0.334103095567108
0.334347779022166
0.33459110614673
0.334833059096651
0.33507362007836
0.335312771350954
0.33555049522827
0.335786774080962
0.336021590338584
0.336254926491665
0.331443485754159
0.331676330422867
0.331907641522012
0.332137401744438
0.332365593854388
0.332592200689568
0.332817205163207
0.333040590266119
0.333262339068757
0.333482434723261
0.280540234485865
0.280783547195772
0.281025142776906
0.281265004071719
0.281503114015224
0.281739455637028
0.281974012063358
0.282206766519085
0.282437702329731
0.282666802923484
0.261434602065491
0.261670709928832
0.261904927865475
0.262137239468996
0.262367628445815
0.262596078617159
0.262822573921014
0.263047098414058
0.263269636273602
0.263490171799499
0.227452973906955
0.227687581415844
0.227920130732617
0.2281506062183
0.228378992366363
0.228605273804573
0.228829435296844
0.229051461745066
0.229271338190928
0.229489049817717
0.20111861039966
0.201346237867083
0.201571649432702
0.201794830510761
0.202015766666282
0.202234443616789
0.202450847234014
0.202664963545591
0.202876778736726
0.203086279151861
0.207586599005502
0.207789283518713
0.207989614387339
0.208187578662025
0.208383163560616
0.20857635646971
0.208767144946184
0.20895551671871
0.209141459689241
0.20932496193449
0.17518534701528
0.175381088717843
0.175574345983587
0.175765107178509
0.175953360850866
0.176139095732543
0.176322300740382
0.176502964977506
0.176681077734612
0.176856628491244
0.167251392022797
0.167426675843735
0.167599364682823
0.167769448666457
0.167936918116038
0.168101763549106
0.168263975680462
0.168423545423256
0.168580463890058
0.1687347223939
0.175251598488392
0.17539732997811
0.175540378326867
0.175680735738153
0.175818394620693
0.175953347589337
0.176085587465935
0.176215107280177
0.176341900270412
0.176465959884438
0.19548640024981
0.195595527137561
0.195701907215257
0.19580553500942
0.195906405259344
0.196004512917729
0.196099853151277
0.196192421341276
0.196282213084142
0.196369224191945
0.228929553631228
0.228994757845199
0.229057178679727
0.229116813215445
0.229173658750418
0.229227712800492
0.229278973099616
0.229327437600131
0.229373104473045
0.229415972108262
0.24750682123946
0.247535063348141
0.247560507440152
0.247583153005861
0.247602999755078
0.247620047617115
0.247634296740832
0.247645747494639
0.247654400466485
0.247660256463806
0.29916347106453
0.299137992879145
0.299109734969593
0.299078699656589
0.299044889479022
0.299008307193722
0.298968955775206
0.298926838415389
0.29888195852328
0.298834319724634
0.316678250416253
0.316616160658356
0.316551328862769
0.316483759739399
0.316413458212558
0.316340429420451
0.316264678714639
0.316186211659476
0.316105034031519
0.316021151818903
0.350148707253547
0.350042331958423
0.349933280282645
0.349821559476711
0.349707176998757
0.349590140513779
0.349470457892809
0.349348137212081
0.349223186752162
0.349095614997059
0.356539284869165
0.356402710820102
0.356263544126354
0.356121794169842
0.355977470530988
0.355830582987669
0.355681141514143
0.35552915627996
0.355374637648835
0.355217596177513
0.377187108139767
0.377013991703533
0.376838391049645
0.376660317768464
0.376479783637018
0.376296800617707
0.376111380856992
0.37592353668406
0.375733280609461
0.375540625323733
0.38932494527306
0.389120542445062
0.388913783211064
0.38870468114004
0.38849324997354
0.38827950362418
0.388063456174112
0.387845121873468
0.38762451513879
0.387401650551433
0.371453044131875
0.371233567985919
0.371011874578707
0.370787978940277
0.370561896257442
0.37033364187209
0.370103231279467
0.369870680126441
0.369636004209751
0.369399219474235
0.356167425417793
0.355932966269988
0.355696443599621
0.355457873765375
0.355217273265114
0.354974658734023
0.354730046942729
0.354483454795416
0.354234899327917
0.353984397705798
0.339216697645945
0.338969611510974
0.338720627668744
0.338469763604945
0.3382170369254
0.337962465354069
0.337706066731053
0.337447859010573
0.337187860258949
0.336926088652562
0.31007283073617
0.30982085986672
0.309567164335219
0.309311762409189
0.309054672456228
0.308795912941926
0.308535502427771
0.308273459569046
0.308009803112716
0.307744551895314
0.264734534442458
0.264487516724291
0.264238950056334
0.263988853083937
0.263737244531883
0.263484143202246
0.263229567972244
0.262973537792082
0.262716071682802
0.262457188734114
0.247088734296721
0.246834627369428
0.246579157298323
0.246322343239438
0.246064204406818
0.24580476007034
0.245544029553544
0.245282032231447
0.245018787528366
0.244754314915743
0.228451904343454
0.228193050830761
0.227933023876244
0.227671842919871
0.227409527438038
0.227146096941398
0.226881570972686
0.226615969104551
0.22634931093739
0.226081616097176
0.208308039621625
0.20804708061284
0.20778513934809
0.207522235317787
0.207258388027374
0.206993616995184
0.206727941750305
0.206461381830454
0.206193956779851
0.205925686147098
0.158731767516653
0.158485320820996
0.15823807488266
0.157990048666925
0.157741261133569
0.157491731234808
0.157241477913231
0.156990520099758
0.156738876711599
0.156486566650215
0.184275423604312
0.184007819483447
0.18373961263636
0.183470822227878
0.183201467396693
0.18293156725338
0.182661140878421
0.182390207320242
0.182118785593264
0.181846894675958
0.18802567572487
0.187749678467488
0.18747327041284
0.18719647045614
0.186919297447044
0.186641770187777
0.186363907431279
0.186085727879355
0.185807250180848
0.185528492929823
0.187871328016366
0.187590756620831
0.187309961796211
0.187028961931949
0.186747775353798
0.186466420322091
0.186184915030021
0.18590327760194
0.185621526091674
0.185339678480852
0.195310117423134
0.195023006379356
0.194735855420148
0.19444868234864
0.194161504887524
0.193874340677472
0.193587207275579
0.193300122153825
0.193013102697543
0.19272616620392
0.235986350126794
0.235677863113087
0.235369521835222
0.235061343761136
0.234753346262776
0.234445546614694
0.234137961992644
0.233830609472215
0.233523506027468
0.233216668529599
0.259665097004779
0.259345467504147
0.259026160953342
0.258707194129686
0.258388583700878
0.258070346223771
0.257752498143154
0.257435055790562
0.257118035383103
0.256801453022308
0.274587065691917
0.274262358690629
0.2739381420852
0.27361443172738
0.273291243347636
0.272968592554122
0.272646494831651
0.27232496554071
0.27200401991647
0.27168367306784
0.308058716140005
0.307721268934038
0.307384474691068
0.307048348459177
0.306712905155229
0.306378159564017
0.306044126337448
0.305710819993732
0.305378254916606
0.305046445354563
0.327369024734176
0.327027444471914
0.326686667595054
0.326346708083834
0.326007579779454
0.325669296383433
0.325331871456984
0.324995318420411
0.32465965055252
0.324324880990062
0.350084625508867
0.349738647910734
0.349393614016736
0.349049536712584
0.348706428739083
0.348364302691679
0.348023171020038
0.347683046027631
0.34734393987135
0.347005864561138
0.346335474343162
0.345999662801853
0.345664917163905
0.345331248844068
0.344998669108603
0.344667189075037
0.344336819711931
0.344007571838673
0.343679456125285
0.343352483092253
0.32847455423134
0.328157171726998
0.327840958747818
0.327525925035002
0.327212080179834
0.326899433623629
0.326587994657695
0.326277772423318
0.325968775911764
0.3256610139643
0.332700392822479
0.332391453911824
0.332083777116865
0.331777370770203
0.331472243054712
0.33116840200367
0.330865855500895
0.330564611280911
0.330264676929119
0.329966059881995
0.30849725211876
0.308211874463306
0.30792782997585
0.307645125237835
0.30736376668327
0.30708376059903
0.306805113125172
0.306527830255258
0.306251917836713
0.305977381571173
0.267666810817465
0.267414057256595
0.267162686103009
0.266912702009146
0.266664109484193
0.266416912894544
0.266171116464283
0.265926724275668
0.265683740269639
0.265442168246337
0.239787759830939
0.239561726509805
0.239337109064529
0.239113910423487
0.238892133377382
0.238671780579845
0.238452854548057
0.238235357663375
0.238019292171977
0.237804660185514
0.205125113281675
0.204929583155227
0.204735483550118
0.204542815645524
0.204351580489964
0.204161779002035
0.203973411971152
0.203786480058303
0.203600983796815
0.203416923593125
0.173585910536389
0.173419543591383
0.173254605391269
0.173091095476535
0.172929013265185
0.172768358053578
0.17260912901728
0.172451325211915
0.17229494557404
0.172139988922011
0.132239980767679
0.132107734260361
0.131976896065458
0.131847464046337
0.131719435953178
0.131592809423904
0.131467581985121
0.131343751053063
0.131221313934547
0.131100267827927
0.146519201494335
0.146393161256105
0.146268507060584
0.146145235873993
0.146023344558771
0.145902829874571
0.145783688479246
0.145665916929852
0.145549511683651
0.145434469099118
0.119199753867215
0.119100482488144
0.119002555410276
0.118905968284354
0.118810716667777
0.118716796025641
0.118624201731777
0.118532929069804
0.118442973234173
0.118354329331221
0.13125991681127
0.131167386934194
0.131076157199594
0.130986222532453
0.130897577774766
0.130810217686597
0.130724136947144
0.130639330155805
0.130555791833238
0.130473516422432
0.155126974988452
0.15503484432927
0.154943965945003
0.154854334284259
0.154765943722998
0.154678788565594
0.154592863045898
0.154508161328298
0.154424677508784
0.154342405616012
0.182325083737751
0.182231189214165
0.182138495672888
0.182046997230589
0.181956687941529
0.181867561798616
0.181779612734445
0.181692834622351
0.181607221277445
0.181522766457661
0.183207045236708
0.183124004951356
0.183042104595996
0.182961337732066
0.182881697868975
0.182803178465141
0.182725772929007
0.18264947462007
0.182574276849898
0.182500172883145
0.224460234201611
0.224367286254775
0.224275422662092
0.224184637030028
0.224094922922624
0.224006273862477
0.22391868333172
0.223832144773
0.223746651590446
0.22366219715064
0.244828373973995
0.244735354874482
0.244643359976996
0.244552382770077
0.244462416709215
0.244373455217784
0.244285491687972
0.244198519481706
0.244112531931573
0.244027522341737
0.299474193050511
0.299363360885945
0.299253501002159
0.299144607284807
0.299036673594894
0.298929693769643
0.298823661623358
0.29871857094828
0.298614415515436
0.298511189075489
0.306444776275398
0.306339372071545
0.306234880107085
0.306131294158832
0.306028607987265
0.305926815337337
0.305825909939272
0.305725885509362
0.305626735750755
0.305528454354241
0.315875844961147
0.315774060237773
0.315673127622799
0.31557304089432
0.315473793821755
0.315375380166579
0.315277793683063
0.315181028119002
0.315085077216432
0.314989934712347
0.305453204359264
0.305364379841711
0.305276342433038
0.305189085740409
0.305102603369542
0.30501688892538
0.304931936012769
0.304847738237112
0.304764289205031
0.304681582525016
0.308930633243759
0.308847227143601
0.308764545374878
0.30868258161341
0.308601329539969
0.308520782840881
0.308440935208631
0.308361780342449
0.3082833119489
0.308205523742457
0.302179303283082
0.302105830425935
0.302033017391598
0.301960857858316
0.301889345515106
0.301818474062292
0.301748237212038
0.30167862868887
0.30160964223019
0.301541271586789
0.301068391862487
0.301001436665922
0.300935078516023
0.300869311217075
0.300804128589192
0.30073952446879
0.300675492709042
0.300612027180336
0.300549121770719
0.300486770386336
0.256414515579635
0.256375253672311
0.256336516074615
0.256298296225552
0.256260587584889
0.256223383633574
0.256186677874134
0.256150463831079
0.256114735051289
0.256079485104399
0.223791418426736
0.223773229493851
0.223755491780829
0.223738198553517
0.223721343102761
0.223704918744761
0.223688918821413
0.22367333670066
0.223658165776817
0.223643399470905
0.198830458751605
0.198828878188314
0.198827676163087
0.19882684590051
0.198826380653742
0.198826273704811
0.198826518364912
0.198827107974685
0.1988280359045
0.198829295554727
0.167947134790851
0.167964476152962
0.167982121516344
0.168000064022381
0.168018296844138
0.168036813186605
0.168055606286937
0.168074669414691
0.168093995872054
0.168113578994067
0.149559127411869
0.149588488783078
0.14961808215004
0.149647900751831
0.149677937861654
0.149708186787039
0.14973864087003
0.14976929348737
0.149800138050685
0.149831168006651
0.141634148673505
0.141669642964447
0.14170530104124
0.141741116390751
0.1417770825358
0.141813193035308
0.141849441484438
0.141885821514734
0.141922326794247
0.141958951027667
0.131719833695577
0.131761813719481
0.131803891336318
0.131846060271527
0.131888314287876
0.131930647185572
0.131973052802349
0.132015525013568
0.132058057732302
0.132100644909423
0.143647479230748
0.143684406691241
0.143721373708621
0.143758374527849
0.143795403431891
0.143832454741771
0.143869522816625
0.143906602053748
0.143943686888641
0.143980771795043
0.150836348458363
0.150870008699949
0.150903654453026
0.150937280428881
0.150970881377099
0.151004452085581
0.151037987380551
0.15107148212657
0.15110493122654
0.151138329621705
0.16954027979463
0.169564379787486
0.169588418948626
0.16961239259958
0.169636296099946
0.169660124847363
0.169683874277486
0.169707539863959
0.169731117118382
0.169754601590276
0.214968519514796
0.214969215698396
0.214969817831713
0.214970322173929
0.214970725021344
0.214971022707313
0.214971211602176
0.214971288113192
0.214971248684467
0.214971089796874
0.239023803078412
0.239011371421089
0.238998816278101
0.238986134573815
0.238973323268649
0.238960379358975
0.238947299877024
0.238934081890784
0.238920722503902
0.238907218855576
0.258895700147834
0.25887190101141
0.25884795449131
0.25882385811502
0.258799609444772
0.258775206077423
0.258750645644338
0.258725925811257
0.258701044278179
0.258675998779227
0.286689103491627
0.286649707803579
0.286610148911847
0.286570425032206
0.286530534413529
0.286490475337654
0.286450246119229
0.286409845105569
0.286369270676509
0.286328521244253
0.336803025143975
0.336736669774332
0.336670148084426
0.336603459238588
0.336536602432097
0.336469576891008
0.336402381871978
0.336335016662097
0.336267480578709
0.336199772969244
0.335349767757163
0.335282106220626
0.335214271173825
0.335146262073091
0.335078078403962
0.335009719681004
0.334941185447631
0.334872475275926
0.334803588766462
0.334734525548116
0.312288201928206
0.312229969989433
0.312171554525407
0.312112954999919
0.312054170904444
0.311995201757963
0.31193604710679
0.311876706524387
0.311817179611191
0.311757465994434
0.328969172005791
0.328900450361122
0.328831545585071
0.328762457623664
0.328693186448597
0.328623732057053
0.328554094471517
0.32848427373959
0.328414269933803
0.328344083151431
0.328109912051608
0.328039441585864
0.327968788539
0.327897953103388
0.327826935495222
0.327755735954325
0.327684354743969
0.327612792150689
0.327541048484095
0.327469124076686
0.299203116689593
0.299144925257609
0.299086546820642
0.299027981452544
0.298969229249503
0.298910290329868
0.298851164833969
0.298791852923947
0.298732354783574
0.298672670618084
0.261208540822827
0.261167182685002
0.2611256294511
0.261083880948284
0.261041937024794
0.260999797549786
0.260957462413173
0.26091493152546
0.260872204817588
0.260829282240771
0.239201355505272
0.239168830786017
0.239136104508351
0.239103176436291
0.239070046353614
0.239036714063705
0.239003179389413
0.23896944217289
0.238935502275453
0.238901359577425
0.184588728983599
0.184581312646422
0.184573679021334
0.184565827392555
0.184557757063285
0.184549467355571
0.184540957610182
0.184532227186475
0.184523275462269
0.184514101833719
0.186132282000649
0.186121849243232
0.186111193305686
0.186100313676342
0.186089209861212
0.186077881383863
0.186066327785292
0.186054548623802
0.186042543474882
0.186030311931079
0.167250759420805
0.167247455094999
0.167243918329208
0.167240148551114
0.167236145205097
0.167231907752119
0.167227435669614
0.167222728451373
0.167217785607434
0.167212606663966
0.137111327184904
0.137120718792804
0.137129865079198
0.137138765261822
0.13714741857439
0.137155824266493
0.137163981603499
0.13717188986646
0.13717954835201
0.13718695637227
0.142014401222016
0.142018896778022
0.142023141161751
0.142027133805877
0.142030874158021
0.142034361680656
0.142037595851019
0.14204057616101
0.142043302117103
0.142045773240254
0.16182578309715
0.161817856790746
0.161809679489287
0.161801251015113
0.16179257120433
0.161783639906722
0.161774456985648
0.161765022317957
0.161755335793888
0.161745397316982
0.155169105979162
0.155161945576046
0.155154531286858
0.155146862986292
0.155138940561972
0.155130763914364
0.155122332956692
0.155113647614849
0.155104707827313
0.155095513545062
0.189708581555103
0.189681571326742
0.189654315614582
0.189626814846555
0.18959906946222
0.189571079912677
0.189542846660471
0.189514370179504
0.189485650954939
0.189456689483118
0.211422079759518
0.211381640824398
0.211340966967865
0.211300059001831
0.211258917748653
0.211217544041038
0.211175938721952
0.211134102644527
0.211092036671969
0.211049741677465
0.243761732556951
0.243702609082457
0.243643267858292
0.243583710201382
0.243523937437758
0.243463950902457
0.243403751939426
0.243343341901422
0.24328272214992
0.243221894055012
0.299108736375788
0.299019528908526
0.298930131937807
0.298840547558535
0.298750777873028
0.298660824990912
0.298570691029005
0.298480378111213
0.298389888368419
0.298299223938374
0.314778134762776
0.314678844629921
0.314579390610579
0.314479775073641
0.314380000394121
0.314280068953038
0.314179983137315
0.314079745339663
0.313979357958475
0.313878823397718
0.313624190308356
0.313523445579435
0.313422560874819
0.313321538617794
0.313220381236688
0.313119091164763
0.313017670840114
0.312916122705562
0.312814449208551
0.312712652801045
0.325300742088979
0.325192363843282
0.325083873398514
0.324975273380487
0.324866566418854
0.324757755147008
0.324648842201976
0.324539830224315
0.324430721858008
0.324321519750364
0.326264056455416
0.326153649165564
0.326043156633555
0.325932581544325
0.325821926585599
0.325711194447791
0.325600387823903
0.325489509409424
0.325378561902233
0.325267548002494
0.339436332365893
0.339318055673681
0.339199724448742
0.339081341575855
0.338962909941412
0.338844432433314
0.338725911940874
0.338607351354715
0.33848875356667
0.338370121469683
0.336370680379026
0.336252928496747
0.336135150496576
0.336017349251675
0.335899527635847
0.335781688523444
0.335663834789266
0.33554596930847
0.335428094956472
0.335310214608852
0.290711026339104
0.29061537762766
0.290519719876919
0.290424055412564
0.290328386560557
0.290232715647051
0.290137044998317
0.290041376940666
0.289945713800364
0.289850057903561
0.264840317455961
0.264757136905154
0.264673964038152
0.264590800872018
0.264507649423636
0.264424511709641
0.264341389746356
0.264258285549716
0.264175201135208
0.264092138517799
0.246341872605099
0.246267690993095
0.246193532584005
0.24611939917176
0.246045292549674
0.245971214510379
0.245897166845767
0.245823151346933
0.245749169804111
0.245675224006621
0.213634932975068
0.213577043161887
0.213519186068956
0.213461363086364
0.21340357560341
0.213345825008553
0.213288112689367
0.213230440032492
0.213172808423588
0.213115219247288
0.188136845362502
0.188091802448734
0.188046799576427
0.188001837817727
0.187956918243847
0.18791204192503
0.187867209930516
0.187822423328497
0.18777768318609
0.187732990569291
0.163057767882179
0.163025485669644
0.162993247711373
0.162961054764198
0.162928907583973
0.162896806925548
0.16286475354274
0.162832748188309
0.162800791613925
0.162768884570145
0.141998232895425
0.141976793922261
0.141955401283223
0.141934055467895
0.14191275696488
0.141891506261787
0.141870303845207
0.141849150200693
0.141828045812746
0.14180699116479
0.134808158575468
0.134790692880831
0.134773276539063
0.134755909942881
0.134738593483927
0.13472132755275
0.134704112538788
0.134686948830355
0.134669836814625
0.134652776877615
0.137850034692772
0.137831473342322
0.137812966064873
0.137794513281384
0.137776115411535
0.137757772873723
0.137739486085037
0.137721255461247
0.13770308141679
0.13768496436475
0.158367543545032
0.158339194022473
0.158310908154521
0.158282686604491
0.158254530034007
0.158226439102977
0.158198414469577
0.158170456790227
0.158142566719576
0.158114744910476
0.172596121240923
0.172561185185164
0.172526323145282
0.172491535946032
0.172456824410088
0.17242218935802
0.172387631608271
0.17235315197713
0.172318751278715
0.172284430324947
0.209224785339558
0.209172143702315
0.209119593933007
0.209067137291394
0.209014775034445
0.208962508416305
0.208910338688258
0.208858267098697
0.20880629489309
0.208754423313948
0.233863507853172
0.233799264012377
0.233735131108907
0.233671110684005
0.233607204275467
0.233543413417605
0.233479739641202
0.233416184473477
0.233352749438047
0.233289436054883
0.260281950870599
0.260205360922373
0.260128904262632
0.260052582730693
0.259976398161684
0.259900352386501
0.259824447231759
0.25974868451975
0.259673066068394
0.259597593691197
0.301723557533879
0.301627287445657
0.301531179917416
0.301435237265987
0.301339461803008
0.30124385583487
0.301148421662662
0.301053161582109
0.300958077883521
0.300863172851733
0.328256625892479
0.328148344430777
0.328040255668991
0.327932362209147
0.327824666647159
0.327717171572769
0.327609879569483
0.327502793214503
0.327395915078674
0.327289247726412
0.356844358377051
0.356723293245707
0.356602454334249
0.356481844547269
0.356361466782243
0.356241323929452
0.356121418871918
0.356001754485333
0.355882333637986
0.355763159190702
0.349377182152595
0.349261641787295
0.34914635471475
0.349031323687784
0.348916551451491
0.348802040743172
0.348687794292266
0.348573814820286
0.348460105040756
0.348346667659142
0.319453373151675
0.319354875058986
0.319256649880661
0.319158699933695
0.319061027527085
0.318963634961772
0.318866524530588
0.318769698518201
0.318673159201065
0.318576908847361
0.324551858973191
0.324453158634306
0.324354755606055
0.324256652198019
0.324158850711168
0.324061353437803
0.323964162661502
0.323867280657072
0.32377070969049
0.323674452018855
0.275711702838111
0.275640005813328
0.275568616242275
0.275497535754564
0.275426765971293
0.275356308505004
0.275286164959652
0.275216336930566
0.275146826004411
0.275077633759156
0.264854713293098
0.264791238842616
0.264728085090305
0.264665253453525
0.264602745340897
0.264540562152269
0.264478705278686
0.264417176102361
0.26435597599664
0.264295106325975
0.234979330125993
0.234933749284989
0.234888495243102
0.234843568967433
0.23479897141642
0.234754703539821
0.234710766278693
0.234667160565373
0.234623887323458
0.234580947467788
0.20734392783114
0.207315251208996
0.207286903529943
0.207258885337586
0.207231197167037
0.207203839544903
0.207176812989277
0.207150118009727
0.207123755107294
0.207097724774473
0.183844104452044
0.183830351711864
0.183816926873212
0.183803830107338
0.183791061577221
0.183778621437558
0.183766509834773
0.183754726907012
0.183743272784144
0.183732147587766
0.162021579345349
0.162021959462451
0.162022663127865
0.162023690161973
0.162025040377172
0.162026713577881
0.16202870956055
0.16203102811367
0.16203366901778
0.162036632045478
0.1393316928876
0.139346650675222
0.139361923898767
0.139377512018582
0.139393414487414
0.139409630750435
0.139426160245253
0.139443002401933
0.139460156643013
0.139477622383523
0.145057878400232
0.145073184821849
0.145088802402536
0.145104730596201
0.145120968849267
0.145137516600684
0.145154373281951
0.145171538317128
0.14518901112286
0.145206791108389
0.142701741894366
0.142721395685007
0.142741354176972
0.14276161671891
0.1427821826522
0.142803051310963
0.142824222022087
0.142845694105245
0.142867466872917
0.142889539630405
0.152885008114567
0.152902693457998
0.15292067928094
0.152938964983436
0.152957549958328
0.15297643359128
0.152995615260787
0.153015094338205
0.153034870187762
0.153054942166577
0.17953982479771
0.179547258183137
0.179554992670169
0.179563027914687
0.179571363565214
0.179579999262931
0.179588934641686
0.179598169328007
0.179607702941113
0.179617535092929
0.191015602243649
0.191020337758088
0.191025373591185
0.191030709466517
0.191036345100276
0.191042280201286
0.191048514471007
0.191055047603548
0.191061879285673
0.191069009196817
0.249416990290159
0.24939555280462
0.249374427849186
0.249353615794916
0.24933311700483
0.249312931833897
0.249293060629031
0.249273503729084
0.249254261464836
0.249235334158995
0.273008531996469
0.272978342661329
0.272948475446392
0.272918930935963
0.27288970970593
0.272860812323748
0.272832239348427
0.272803991330516
0.272776068812094
0.272748472326753
0.313307556864168
0.313260325991527
0.313213433350245
0.31316687994132
0.313120666756673
0.313074794779113
0.313029264982321
0.312984078330815
0.312939235779933
0.312894738275802
0.321746245474985
0.321697994166713
0.321650093021988
0.321602543059756
0.321555345289504
0.321508500711236
0.321462010315442
0.321415875083068
0.32137009598549
0.321324673984479
0.312023327701714
0.311983249705632
0.311943529204968
0.311904167008413
0.31186516391502
0.311826520714185
0.311788238185608
0.311750317099269
0.311712758215398
0.311675562284441
0.351161185096633
0.35110496107787
0.351049112573784
0.350993640783724
0.350938546896583
0.350883832090753
0.350829497534077
0.350775544383806
0.350721973786547
0.350668786878218
0.33684242645975
0.336796895323081
0.336751747604717
0.336706984227126
0.336662606102011
0.336618614130257
0.336575009201884
0.336531792195993
0.336488963980709
0.336446525413133
0.33705870387793
0.337016720102536
0.336975128651063
0.336933930344011
0.336893125990546
0.33685271638844
0.336812702324004
0.336773084572018
0.336733863895665
0.336695041046458
0.305107892442247
0.305085637808319
0.305063774907939
0.305042304055362
0.305021225553196
0.305000539692318
0.304980246751802
0.304960346998834
0.304940840688627
0.304921728064334
0.261667373447752
0.261670661200377
0.261674331951457
0.261678385360744
0.261682821076005
0.261687638732925
0.261692837955009
0.261698418353478
0.261704379527159
0.261710721062373
0.232533114966698
0.232554804388877
0.232576865198293
0.232599296569422
0.232622097663973
0.232645267630761
0.232668805605562
0.232692710710968
0.232716982056235
0.232741618737124
0.216944575235035
0.216977848831541
0.217011480817091
0.217045470036241
0.217079815319357
0.21711451548242
0.217149569326819
0.217184975639138
0.217220733190931
0.217256840738491
0.194498376043863
0.194546574353693
0.194595112853501
0.194643989954378
0.19469320405115
0.194742753522088
0.194792636728619
0.194842852015011
0.194893397708058
0.194944272116748
0.163331554400432
0.163398909030671
0.16346657888557
0.163534561808072
0.163602855621869
0.163671458130999
0.163740367119425
0.163809580350605
0.163879095567035
0.163948910489786
0.150165883455415
0.150243215675351
0.150320836996726
0.150398744878725
0.15047693675669
0.150555410041549
0.150634162119221
0.150713190350012
0.150792492067972
0.150872064580249
0.145934679439716
0.146017293326401
0.146100168444171
0.14618330192356
0.146266690864648
0.14635033233626
0.146434223375151
0.146518360985156
0.146602742136316
0.146687363763976
0.145475155036221
0.145560896648513
0.145646868985408
0.145733068817847
0.145819492877137
0.145906137853878
0.145993000396838
0.146080077111814
0.146167364560442
0.146254859258983
0.180529981047701
0.180600790239291
0.180671804914271
0.180743021816909
0.180814437639011
0.180886049018464
0.180957852537742
0.181029844722373
0.181102022039359
0.181174380895551
0.187875183283655
0.187944580899244
0.188014150635886
0.188083888724645
0.188153791327572
0.188223854535806
0.188294074367629
0.188364446766467
0.188434967598843
0.188505632652278
0.213598185542649
0.21365661837932
0.213715188868721
0.213773892769484
0.213832725749619
0.213891683384075
0.213950761152254
0.214009954435461
0.214069258514298
0.214128668565994
0.242278449273351
0.242324014809675
0.242369678572702
0.242415435645358
0.242461280992568
0.242507209458202
0.242553215761964
0.242599294496207
0.242645440122684
0.242691646969229
0.29623665370137
0.296256222844357
0.296275849389582
0.296295527755717
0.296315252209208
0.296335016860525
0.296354815660346
0.296374642395664
0.296394490685823
0.296414353978481
0.308904409860322
0.308918049285936
0.308931686257241
0.308945313647416
0.30895892413652
0.308972510207003
0.308986064139158
0.308999578006487
0.309013043671004
0.309026452778454
0.329621486658837
0.329624468470198
0.329627372715219
0.329630190379639
0.329632912207678
0.329635528696807
0.329638030092461
0.329640406382669
0.329642647292619
0.329644742279153
0.34731520961871
0.347308148008067
0.347300911814012
0.347293489581882
0.347285869559887
0.347278039693201
0.347269987617983
0.347261700655346
0.34725316580526
0.347244369740396
0.348144389178475
0.3481345749321
0.348124457701324
0.34811402279822
0.348103255175975
0.348092139422423
0.348080659753532
0.348068800006862
0.348056543634964
0.348043873698764
0.348914039979154
0.348900048975935
0.348885591406387
0.348870648708923
0.348855201896737
0.34883923155101
0.34882271781412
0.348805640382824
0.348787978501449
0.348769710955065
0.333084300717198
0.333072587591947
0.333060198222825
0.333047109296192
0.333033297005358
0.33301873704384
0.333003404598643
0.332987274343579
0.332970320432626
0.332952516493323
0.310104099227514
0.310095925943086
0.310086814299303
0.310076735470953
0.310065660074538
0.310053558162072
0.310040399214952
0.310026152137928
0.31001078525317
0.30999426629444
0.286106203774991
0.286099213633797
0.286090964770104
0.286081422213174
0.286070550376863
0.286058313054578
0.286044673414401
0.286029593994374
0.286013036697949
0.285994962789633
0.266405624845877
0.266394181298284
0.266381095923436
0.266366327148533
0.266349832743277
0.266331569816782
0.266311494814721
0.266289563516724
0.266265731034038
0.266239951807455
0.20889525830006
0.208894097395356
0.20889083399177
0.208885419125028
0.208877803155141
0.20886793576616
0.208855765966261
0.208841242088184
0.208824311790023
0.208804922056376
0.200625000329308
0.200604607965402
0.200581590955669
0.200555893509115
0.200527459172947
0.200496230836119
0.200462150733324
0.200425160449419
0.200385200924304
0.200342212458274
0.164287103799629
0.164255875763832
0.164221426463321
0.164183693258058
0.164142612902869
0.164098121555768
0.164050154786822
0.163998647587545
0.163943534380847
0.16388474903153
0.127662972262012
0.12761471707712
0.127562578621832
0.127506488198112
0.127446376611397
0.127382174184605
0.127313810772758
0.127241215778217
0.127164318166547
0.127083046483006
0.156002465593504
0.155897730924174
0.155788413081446
0.155674439465491
0.155555737147925
0.155432232892195
0.155303853174631
0.155170524206171
0.155032171954766
0.154888722168451
0.16996638665593
0.169804907075296
0.169638110120281
0.169465921091835
0.169288265196442
0.169105067573299
0.168916253322189
0.168721747532043
0.168521475310183
0.168315361812255
0.1847692962902
0.184542945189734
0.184310533252235
0.184071986345503
0.183827230545289
0.183576192169275
0.183318797811706
0.183054974378684
0.182784649124104
0.182507749686236
0.20372234289417
0.203421333390924
0.203113540941072
0.20279889536431
0.202477327056635
0.202148767030567
0.201813146955958
0.201470399201354
0.201120456875902
0.200763253871801
0.223587780488341
0.223204269569737
0.2228133108636
0.222414842115473
0.222008802073368
0.22159513053308
0.221173768383933
0.220744657654917
0.220307741561219
0.219862964551099
0.234596705708029
0.234128454091558
0.233652186760171
0.233167853757404
0.232675406598756
0.23217479832027
0.231665983527311
0.231148918443524
0.230623560959938
0.230089870684186
0.284057142851671
0.283479425186731
0.282893278647125
0.282298670874109
0.281695571471781
0.281083952056412
0.280463786305701
0.2798350500079
0.279197721110806
0.27855177977056
0.284375163600132
0.283708708763602
0.283033597386668
0.282349819022164
0.281657365671333
0.280956231830829
0.280246414539314
0.279527913423589
0.278800730744232
0.278064871440714
0.308282922140879
0.307514257989836
0.306736956672371
0.305951034665334
0.305156511340385
0.30435340900515
0.303541752943575
0.302721571455456
0.301892895895105
0.301055760709106
0.3175741296801
0.316711511377963
0.315840560262548
0.314961323722267
0.314073852411494
0.31317820028209
0.312274424613779
0.311362586043308
0.310442748592366
0.309514979694229
0.303143165206287
0.302202466887002
0.3012540587101
0.300298021927654
0.299334441316192
0.298363405194932
0.297385005442494
0.296399337512057
0.295406500444929
0.294406596882502
0.295173689780333
0.294159088848714
0.293137751506526
0.29210979490352
0.291075339823957
0.29003451068822
0.28898743555263
0.287934246107405
0.28687507767276
0.285810069193112
0.264070721579837
0.263004795994416
0.261933463432967
0.260856876984883
0.259775193305994
0.258688572601017
0.257597178603993
0.256501178556681
0.255400743184908
0.254296046672865
0.264003921027638
0.262885831527309
0.261764026739241
0.260638694516158
0.259510026009295
0.25837821563017
0.257243461010272
0.256105962958637
0.254965925417339
0.253823555414879
0.193463206395317
0.192346405060392
0.191227894834705
0.190107893853081
0.188986623073347
0.187864306217346
0.186741169709931
0.185617442615947
0.18449335657523
0.183369145735638
0.160905300484461
0.159792219337903
0.158679724586592
0.157568059438578
0.156457469246709
0.155348201430389
0.154240505395587
0.153134632453098
0.152030835735106
0.150929370110105
0.115469405501919
0.114390549355798
0.113314789435904
0.112242386248895
0.111173601589451
0.110108698446223
0.109047940906464
0.107991594059416
0.10693992389849
0.105893197222322
0.0782263682635944
0.0772036409462638
0.0761866543503243
0.0751756771566332
0.0741709783423405
0.0731728270766508
0.0721814926159756
0.0711972441985681
0.0702203509387177
0.0692510817206151
0.047336543537885
0.0463938015218281
0.045459482257671
0.0445338523856446
0.0436171777839306
0.0427097234626803
0.0418117534584629
0.0409235307292709
0.0400453170502086
0.0391773729100106
0.0298562335726204
0.0290138351059136
0.0281824766860414
0.0273624125384872
0.0265538951026567
0.025757174936567
0.0249725006234926
0.0242001186807642
0.0234402734709054
0.0226932071153273
0.0241842443334476
0.0234623404117538
0.0227539280254429
0.0220592395546076
0.0213785047527556
0.0207119506806379
0.0200598016443351
0.0194222791378849
0.0187996017907459
0.0181919853204154
-0.00641393449842655
-0.00697879017696907
-0.0075279619880731
-0.00806124651803792
-0.00857844341268576
-0.00907935538656453
-0.00956378822444028
-0.010031550774653
-0.0104824549338918
-0.0109163156229348
0.0255578123825519
0.0251401412599846
0.0247400607680461
0.0243577447858951
0.0239933644423281
0.0236470882049032
0.0233190819818174
0.0230095092371431
0.0227185311200482
0.0224463066086378
0.0453139957563531
0.0450681899542546
0.0448416094037885
0.0446344064389163
0.044446732184569
0.0442787368027272
0.0441305697581185
0.0440023801043098
0.0438943167909882
0.0438065289932317
0.063147162824255
0.0630906747363084
0.0630549197733356
0.0630400520130843
0.0630462277635321
0.0630736060415125
0.063122349079182
0.0631926228591709
0.0632845976792547
0.0633984487473711
0.0799703142320729
0.0801202503332561
0.080292628501896
0.0804876503749234
0.0807055259573739
0.0809464744158845
0.0812107249077582
0.0814985174462073
0.0818101038023405
0.0821457484444037
0.154629827792562
0.154978385237696
0.155351899439514
0.155750696697727
0.156175121276512
0.156625536574134
0.157102326331348
0.157605895878408
0.158136673420413
0.158695111360601
0.161764338051231
0.162378316620506
0.163021472427652
0.163694368669136
0.164397599901308
0.165131793574918
0.165897611600581
0.166695751943504
0.167526950245578
0.16839198147272
0.205793922925989
0.206710864076303
0.207664225372535
0.208654956420213
0.209684054674649
0.210752567182891
0.211861592329707
0.213012281583545
0.214205841238145
0.215443534145245
0.222078395463302
0.223405703061207
0.224781290307931
0.226206663325678
0.227683393144119
0.229213117267536
0.230797541193076
0.232438439873272
0.234137659115745
0.235897116912694
0.251946480755522
0.253825352518747
0.255770665733417
0.257784638924595
0.259869568120652
0.262027827592961
0.264261870467149
0.266574229196763
0.268967515890121
0.271444422480944
0.258210817690055
0.26087125547228
0.263623862924304
0.266471649334845
0.269417701994055
0.272465185225967
0.275617339197731
0.278877478496236
0.282248990462881
0.285735333277435
0.277842292314353
0.281574690979525
0.285432693936733
0.28942001809416
0.293540437555172
0.297797780022059
0.302195922894186
0.306738789054514
0.311430342339025
0.316274582684296
0.303870430121929
0.309040862922919
0.314376141196995
0.319880353976865
0.325557597187462
0.331411966802596
0.337447551667793
0.343668425991224
0.350078641505732
0.356682219306067
0.336486318899949
0.343502014259414
0.35072285789439
0.358152660095863
0.365795155053963
0.373653990896993
0.381732719467353
0.390034785848218
0.398563517656123
0.40732211411602
0.388448593509363
0.397689876557537
0.407169732142141
0.416890732627543
0.426855264768056
0.437065517897611
0.447523472053812
0.458230886063184
0.469189285615477
0.480399951355964
0.44683341634994
0.458573926529677
0.47056894458389
0.482818652779807
0.495322930158201
0.508081341397646
0.521093125925648
0.534357187312282
0.547872082982252
0.561636014281625
0.561278009299828
0.575540326877719
0.590044050637558
0.604785866475086
0.619762061141874
0.634968515207283
0.650400696628984
0.666053654966955
0.681922016274964
0.69799997870263
0.684643444419514
0.701136289583249
0.717818722461558
0.734683200553963
0.751721743207027
0.768925932109576
0.786286912694261
0.803795396466843
0.821441664282283
0.839215570584571
0.828890788697439
0.846901961038779
0.865007826476926
0.88319659560002
0.90145608866889
0.919773745860252
0.938136638522518
0.956531481440374
0.974944646101091
0.993362174952559
1.02335342237084
1.04173077759623
1.06006881032245
1.07835240888063
1.09656621816766
1.11469465947517
1.13272195115501
1.15063213008719
1.16840907391314
1.18603652399418
1.21814640524314
1.23541834335345
1.25249143751337
1.26934912668362
1.28597483762842
1.30235201123795
1.31846412922444
1.33429474113299
1.34982749160643
1.36504614784176
1.39234039753395
1.40687659377714
1.42105101204666
1.43484818605338
1.44825290995108
1.46125026556923
1.47382564937292
1.48596479908198
1.49765381988148
1.50887921015649
1.53965347197383
1.54990278426041
1.55965057445018
1.56888515949701
1.57759536879712
1.5857705657102
1.59340066816528
1.60047616829559
1.60698815104911
1.61292831172392
1.64775248369959
1.65251188039169
1.65667836896662
1.66024623871561
1.66321045925007
1.66556669068275
1.66731129246301
1.66844133084155
1.66895458494343
1.66884955143232
1.69504051346201
1.69368382553601
1.69170867753897
1.68911645470476
1.68590926166809
1.68208991853628
1.67766195554321
1.67262960630009
1.66699779966165
1.66077215023017
1.69671665194442
1.6893014748388
1.68131330963405
1.67276039324097
1.66365158144765
1.65399633192466
1.64380468612421
1.63308725012239
1.62185517445636
1.61012013301082
1.62646588727726
1.61374763628145
1.60056436455105
1.58692961159138
1.57285732247999
1.5583618223057
1.5434577900908
1.52816023226331
1.51248445574713
1.49644604073811
1.48355775607726
1.46684001220364
1.44980773545469
1.43247732302112
1.41486530691635
1.39698832629189
1.37886309990793
1.36050639882262
1.34193501936222
1.32316575643234
1.31725618107635
1.29813488050936
1.27886581553608
1.25946551748744
1.23995038992789
1.22033668517097
1.20064048149995
1.18087766113594
1.16106388899231
1.14121459225206
1.12915785797576
1.10927884025781
1.08940896395494
1.06956251875976
1.04975346792611
1.02999543337847
1.01030168181391
0.99068511180872
0.971158241938626
0.951733199918379
0.927777262451672
0.908592969299817
0.889544447489022
0.870642173062949
0.851896192199107
0.833316116428995
0.814911118840158
0.796689931244718
0.778660842296262
0.760831696535052
0.719131684858767
0.7017362193239
0.68456156349818
0.667613793374692
0.650898549144331
0.634421039282935
0.618186045375739
0.602197927646459
0.586460631157016
0.570977692643251
0.546883730158854
0.53192295537763
0.517224773645235
0.502791168108922
0.488623756050351
0.474723798777138
0.461092211894433
0.447729575919809
0.434636147204708
0.421811869126243
0.386314451917537
0.374038578728436
0.362029917668263
0.350287276018866
0.338809206871989
0.327594021214937
0.316639800051049
0.305944406525052
0.295505498024226
0.285320538227554
0.243195316933971
0.233526022153611
0.224102015579069
0.214920104202998
0.205976959886509
0.197269130580471
0.18879305133482
0.180545055078409
0.172521383153064
0.164718195586966
0.14094882505868
0.133582900071996
0.126425545949129
0.119472694336209
0.112720242593015
0.106164062262474
0.0998000072113077
0.0936239214370248
0.0876316465374963
0.0818190288404977
0.0330700090033015
0.0276258476924608
0.0223489658044173
0.0172352925139978
0.0122807922524973
0.00748146979738299
0.00283337503037183
-0.0016673926315712
-0.00602468012719148
-0.0102422769580489
-0.0362015603243938
-0.0401399614243864
-0.0439496681568038
-0.0476342087047453
-0.0511970393507883
-0.0546415424301085
-0.057971024545612
-0.0611887150359082
-0.0642977646868133
-0.0673012446768498
-0.0818385329783957
-0.084633948101752
-0.0873325252704319
-0.0899370111724727
-0.0924500707849739
-0.0948742875183495
-0.0972121635260199
-0.0994661201698248
-0.101638498631608
-0.103731560661522
-0.120616149419719
-0.122549618165865
-0.124410092381601
-0.126199526170295
-0.127919799677268
-0.129572720470142
-0.131160024995171
-0.132683380101795
-0.134144384627952
-0.135544571038961
-0.118694613834128
-0.119986597473142
-0.121221974433363
-0.122402028688593
-0.123527986605828
-0.124601018770206
-0.125622241821095
-0.126592720294443
-0.12751346846673
-0.128385452196195
-0.105763535876627
-0.106552423832101
-0.107295166546329
-0.10799255413577
-0.108645337330999
-0.109254229225296
-0.109819906997449
-0.110343013606448
-0.110824159455958
-0.11126392402669
-0.0941641499211353
-0.0945315217725293
-0.0948590764663954
-0.0951472852018456
-0.0953965958829991
-0.0956074345297433
-0.09578020664834
-0.0959152985613734
-0.0960130786966556
-0.096073898834846
-0.064560821848745
-0.0645644813651854
-0.064532139924056
-0.0644640939757434
-0.0643606289416877
-0.064222020215067
-0.0640485341213062
-0.0638404288388936
-0.0635979552810449
-0.0633213579388139
-0.0444759988679349
-0.0441411308135624
-0.0437728369186907
-0.0433713434402027
-0.0429368738743127
-0.0424696495832617
-0.0419698903887208
-0.0414378151327486
-0.0408736422071709
-0.0402775900522521
-0.0213190775011363
-0.0206690877882479
-0.0199878741925986
-0.0192756595250731
-0.0185326687087908
-0.0177591291120146
-0.0169552708564914
-0.0161213271020681
-0.0152575343084339
-0.0143641324748134
0.00896636754656187
0.00990705121319208
0.0108766064807353
0.0118747774844636
0.0129013039240354
0.0139559209394826
0.0150383590038652
0.0161483438318999
0.0172855963038712
0.0184498324041729
0.0646352625163866
0.0658301024863742
0.0670510560590278
0.0682978198469025
0.0695700854562822
0.0708675395005901
0.0721898636243035
0.0735367345368629
0.0749078240560661
0.076302799160471
0.0937763635911733
0.0952100662767275
0.096666631309493
0.0981457071976201
0.0996469379911546
0.101169963379229
0.102714418793311
0.104279935516164
0.105866140796143
0.107472657966512
0.103629115210865
0.105277845426446
0.106945733868044
0.108632389423161
0.110337417725008
0.112060421295437
0.11380099969083
0.115558749650702
0.117333265248761
0.119124138046196
0.122538963184036
0.124360511993284
0.126197179593822
0.128048549086262
0.129914201850836
0.131793717709532
0.13368667508902
0.135592651184198
0.137511222122162
0.139441963126465
0.115511637800692
0.117478374933858
0.119455997237754
0.121444077644453
0.123442189002679
0.125449904240491
0.127466796527213
0.12949243943449
0.131526407096335
0.133568274368064
0.118141941584475
0.120207071931445
0.122278827767106
0.124356788179
0.126440533750154
0.128529646709015
0.130623711077529
0.132722312817302
0.134825039973727
0.136931482818009
0.130342839297813
0.132459842023748
0.13457934371094
0.136700944801867
0.138824248640861
0.140948861601957
0.143074393214166
0.145200456284085
0.147326667015813
0.149452645128106
0.114991576232356
0.117134251459704
0.119275565841978
0.121415153819331
0.123552653889905
0.125687708709546
0.127819965188481
0.129949074584927
0.132074692595617
0.134196479443195
0.0878803415693581
0.0900176760055654
0.0921501752214926
0.0942775177560169
0.0963993870641795
0.098515471585551
0.100625464809385
0.102729065336551
0.104825976938263
0.106915908611578
0.0941896560171888
0.0962721785641702
0.0983468761505187
0.100413478984598
0.102471722730294
0.104521348543381
0.106562103104735
0.108593738650425
0.110616012998691
0.112628689573841
0.0684545421794018
0.0704704186369054
0.0724760093084532
0.0744710996501824
0.0764554807989978
0.0784289495785379
0.0803913085022613
0.0823423657736845
0.0842819352838238
0.0862098366058606
0.0987468487007479
0.100645585924483
0.102532150465293
0.104406384649048
0.106268136416949
0.108117259304483
0.109953612417926
0.111777060408433
0.113587473443776
0.115384727177766
0.11352667838645
0.115299082806365
0.117057986507766
0.118803286693531
0.120534885866964
0.122252691788473
0.123956617430334
0.125646580929563
0.127322505538978
0.128984319576497
0.121239835896095
0.122877928607141
0.124501723094194
0.126111167279261
0.12770621387164
0.129286820307857
0.130852948690252
0.132404565724262
0.133941642654468
0.135464155199458
0.144885338340074
0.146374711212107
0.14784947510704
0.1493096230643
0.150755152255837
0.152186063915111
0.153602363265295
0.155004059446754
0.156391165443857
0.157763698011176
0.209824311298331
0.211142417103841
0.212446034921129
0.213735196463648
0.215009936838058
0.21627029446785
0.217516311016723
0.218748031311765
0.219965503266494
0.221168777803791
0.254107312105616
0.255266485561075
0.256411639982846
0.257542837952624
0.258660144675901
0.25976362790528
0.260853357863994
0.261929407169683
0.26299185075848
0.264040765809415
0.279512074000215
0.280526956021582
0.281528557537085
0.282516964127927
0.283492263246448
0.284454544143325
0.285403897795349
0.286340416833824
0.287264195473605
0.288175329442806
0.316141059146394
0.31701366653223
0.317873931920747
0.318721956739089
0.319557843586905
0.320381696170643
0.321193619238685
0.321993718517356
0.322782100647813
0.323558873123842
0.344696398235393
0.345440093450529
0.346172511345298
0.346893762472383
0.347603957939963
0.348303209355273
0.348991628769157
0.349669328621648
0.350336421688568
0.350993021029174
0.391920394366541
0.392536210851474
0.393141884548996
0.393737529647153
0.394323260370873
0.394899190935932
0.395465435504009
0.396022108138802
0.396569322763225
0.397107193117682
0.403507689830761
0.404024276751798
0.404531860668438
0.405030554267794
0.405520469861848
0.406001719352137
0.406474414195508
0.406938665370913
0.407394583347264
0.407842278052318
0.402774416904615
0.403208745557559
0.403635175734945
0.404053814841331
0.404464769599994
0.404868146027905
0.405264049411685
0.40565258428453
0.406033854404098
0.406407962731351
0.41164355274302
0.412001209429472
0.412352009506015
0.412696052613925
0.413033437505734
0.413364262029505
0.413688623113985
0.414006616754589
0.41431833800023
0.414623880940968
0.412491796500757
0.412786476671659
0.41307525430525
0.413358219518528
0.413635461419717
0.413907068100541
0.414173126629207
0.414433723044098
0.41468894234815
0.414938868503903
0.383686646012384
0.383941978043876
0.384192254268792
0.384437554062315
0.384677955744443
0.384913536578747
0.385144372771716
0.385370539472632
0.38559211077399
0.385809159712432
0.363057050307042
0.363276748849882
0.363492131796233
0.363703267694773
0.363910224050548
0.364113067328718
0.364311862958708
0.364506675338755
0.364697567840854
0.364884602816062
0.323775351066999
0.323975494985077
0.324171951528389
0.324364778514087
0.324554032770568
0.324739770144738
0.324922045509554
0.325100912771832
0.325276424880308
0.325448633833934
0.298693337247347
0.298872550837516
0.299048604593289
0.299221546469193
0.299391423515004
0.299558281885249
0.299722166848866
0.299883122799014
0.300041193263021
0.30019642091246
0.286060430910623
0.286217239966527
0.286371325441728
0.286522726511232
0.286671481546448
0.286817628125843
0.286961203045656
0.287102242330671
0.287240781245034
0.287376854303115
0.255630244654446
0.255777422672959
0.255922225624298
0.25606468473892
0.256204830552548
0.25634269291712
0.256478301011736
0.256611683353582
0.25674286780884
0.256871881603566
0.250216440009204
0.250344581948607
0.250470629393702
0.250594607034301
0.250716538973986
0.250836448740714
0.250954359297373
0.251070293052259
0.251184271869494
0.251296317079365
0.247041140082542
0.247151562084486
0.247260110223841
0.247366803743442
0.247471661402831
0.247574701488092
0.247675941821592
0.247775399771615
0.247873092261915
0.247969035781143
0.247138550797407
0.247231506376953
0.247322759691039
0.247412325568809
0.247500218449934
0.247586452393405
0.24767104108621
0.247753997851907
0.24783533565907
0.247915067129628
0.269916552147967
0.269982148577328
0.270046180289579
0.270108658871967
0.270169595604731
0.270229001468721
0.270286887152901
0.270343263061739
0.270398139322467
0.270451525792236
0.288612976845795
0.288654359788424
0.28869428571208
0.288732763686434
0.288769802544802
0.288805410890572
0.288839597103531
0.288872369346065
0.288903735569244
0.288933703518805
0.302794591640717
0.302814871090203
0.302833777958446
0.302851319398233
0.302867502385021
0.30288233372224
0.302895820046496
0.302907967832651
0.302918783398814
0.30292827291122
0.354998276164788
0.354979107182872
0.354958643441239
0.354936891188644
0.354913856544157
0.35488954550143
0.354863963932863
0.354837117593675
0.354809012125886
0.354779653062201
0.368606214389631
0.36856743749035
0.368527426610596
0.368486187054119
0.368443724033274
0.368400042672389
0.368355148011036
0.368309045007231
0.368261738540548
0.368213233415159
0.382197532361252
0.382139628828283
0.382080544308011
0.38202028350526
0.381958851063335
0.381896251566607
0.381832489543039
0.381767569466642
0.381701495759864
0.381634272795913
0.430495644284228
0.43040167708728
0.430306586317221
0.430210376776863
0.430113053229828
0.430014620402495
0.429915082985894
0.429814445637536
0.429712712983195
0.429609889618636
0.429474811460052
0.429369835931019
0.429263783307352
0.429156658080666
0.42904846472046
0.428939207675552
0.42882889137547
0.428717520231799
0.428605098639489
0.428491630978117
0.456707149931739
0.456577441801067
0.456446708092726
0.456314953486671
0.456182182652839
0.456048400252174
0.455913610937615
0.45577781935505
0.455641030144245
0.455503247939726
0.420301814600398
0.420179587171586
0.420056371430347
0.41993217156531
0.419806991764322
0.419680836215165
0.419553709106254
0.419425614627312
0.419296556970008
0.419166540328584
0.400149370211012
0.400026888896922
0.399903456247569
0.399779076239847
0.399653752856221
0.399527490085217
0.399400291921896
0.399272162368299
0.39914310543389
0.399013125135959
0.388492184299994
0.3883655630606
0.38823802783441
0.388109582545451
0.387980231127523
0.387849977524524
0.387718825690746
0.387586779591162
0.387453843201703
0.387320020509514
0.360597297490557
0.360475004831095
0.360351830924191
0.360227779475664
0.360102854204003
0.359977058840554
0.359850397129713
0.359722872829085
0.35959448970966
0.35946525155595
0.335386545943109
0.335267580394339
0.335147764964039
0.335027103196262
0.334905598649522
0.3347832548969
0.33466007552614
0.33453606413974
0.334411224355035
0.33428555980427
0.311199885470453
0.311084059021361
0.31096741276931
0.310849950123119
0.310731674507098
0.310612589361082
0.310492698140475
0.310372004316281
0.310250511375131
0.310128222819304
0.28343319077112
0.283322604154847
0.283211225553147
0.283099058202693
0.282986105356192
0.282872370282384
0.282757856266045
0.282642566607978
0.282526504625009
0.282409673649966
0.241447891249454
0.241349949255819
0.241251237648262
0.241151759318769
0.241051517175754
0.240950514144032
0.240848753164798
0.240746237195604
0.240642969210329
0.240538952199146
0.234011328445933
0.233909033032725
0.233805995976406
0.233702220252613
0.233597708853171
0.23349246478605
0.233386491075321
0.233279790761106
0.233172366899536
0.233064222562691
0.222316803007554
0.22221254492711
0.222107572891613
0.222001889904967
0.221895498986889
0.221788403172853
0.221680605514029
0.221572109077223
0.221462916944817
0.221353032214704
0.24326383714795
0.243141568686344
0.243018622790828
0.242895002892785
0.242770712438484
0.242645754889012
0.242520133720189
0.242393852422496
0.242266914500988
0.24213932347522
0.258430038531421
0.258292944521779
0.258155212360502
0.258016845827176
0.257877848715255
0.257738224831966
0.257597977998219
0.257457112048515
0.257315630830853
0.257173538206635
0.272212339252408
0.272061446630824
0.271909958249499
0.271757878210082
0.271605210626948
0.271451959627096
0.271298129350049
0.271143723947746
0.270988747584446
0.270833204436616
0.278541580554767
0.278380985173947
0.278219837673602
0.278058142375164
0.277895903611645
0.277733125727531
0.277569813078664
0.277405970032141
0.277241600966197
0.277076710270098
0.321259614548218
0.321071525282066
0.320882939254176
0.320693861444779
0.320504296843998
0.320314250451719
0.320123727277464
0.319932732340267
0.319741270668546
0.319549347299974
0.361876878564678
0.361662792398852
0.3614482708593
0.361233319544813
0.361017944062242
0.360802150026355
0.360585943059697
0.360369328792445
0.360152312862271
0.359934900914193
0.379027589544939
0.378799749732962
0.378571535947257
0.378342954099409
0.378114010107388
0.377884709895399
0.377655059393726
0.377425064538592
0.377194731272002
0.376964065541598
0.397160864007304
0.396919339914238
0.396677506592185
0.396435370262233
0.396192937150091
0.395950213485928
0.395707205504222
0.395463919443598
0.395220361546677
0.394976538059916
0.411074301746846
0.410821796987523
0.410569049686763
0.410316066306725
0.41006285331241
0.409809417171498
0.409555764354188
0.409301901333035
0.409047834582788
0.408793570580233
0.425083055109531
0.424820146172497
0.424557063764688
0.424293814573823
0.424030405288634
0.423766842598697
0.423503133194265
0.423239283766106
0.422975301005331
0.422711191603235
0.407099012995629
0.406842342409138
0.40658556122782
0.406328675952394
0.406071693083128
0.405814619119682
0.405557460560946
0.40530022390488
0.405042915648353
0.404785542286984
0.373225594377941
0.372983757568526
0.372741866919244
0.372499928532333
0.372257948508389
0.372015932946216
0.371773887942671
0.371531819592522
0.371289733988292
0.37104763722011
0.345613732648511
0.345384224512932
0.345154716858428
0.344925215452796
0.344695726061025
0.34446625444515
0.344236806364114
0.344007387573629
0.343778003826031
0.343548660870143
0.330710972388161
0.33048803084138
0.330265144002253
0.330042317448355
0.329819556753212
0.329596867486163
0.329374255212227
0.329151725491966
0.328929283881351
0.328706935931626
0.310054069381814
0.309841138355089
0.309628312777686
0.309415597952871
0.309202999178753
0.308990521748155
0.308778170948487
0.308565952061617
0.308353870363744
0.308141931125272
0.272406376506939
0.272212495342474
0.272018763092286
0.271825184563397
0.271631764556859
0.271438507867647
0.271245419284539
0.271052503589999
0.270859765560071
0.270667209964254
0.238200833135294
0.238024789592875
0.237848934285038
0.23767327155521
0.237497805740132
0.237322541169755
0.237147482167137
0.23697263304834
0.236797998122329
0.236623581690868
0.203928558473357
0.20377084818959
0.203613360729032
0.203456099961804
0.203299069750742
0.20314227395131
0.202985716411505
0.20282940097177
0.202673331464903
0.202517511715965
0.204047291856948
0.203891140608651
0.203735250988343
0.203579626810073
0.203424271879688
0.203269189994745
0.203114384944417
0.20295986050941
0.202805620461873
0.20265166856531
0.185244145986244
0.185099406386097
0.184954961647834
0.184810815286318
0.184666970807558
0.184523431708626
0.184380201477577
0.18423728359337
0.184094681525787
0.183952398735352
0.185312001918699
0.185169617435879
0.185027562949409
0.184885841900544
0.184744457720873
0.18460341383223
0.184462713646625
0.184322360566159
0.18418235798295
0.184042709279055
0.20680374357023
0.206653365477405
0.206503357357233
0.206353722833716
0.20620446552011
0.206055589018849
0.205907096921459
0.205758992808479
0.205611280249376
0.205463962802468
0.221510295381213
0.221355684220508
0.221201483027822
0.221047695516146
0.220894325386709
0.220741376328891
0.220588852020145
0.220436756125907
0.220285092299518
0.22013386418214
0.251989896878666
0.251823551709793
0.251657661497073
0.251492230227607
0.251327261875493
0.251162760401732
0.250998729754143
0.250835173867272
0.250672096662301
0.250509502046964
0.296513837628247
0.2963291425053
0.296144953726186
0.29596127571439
0.295778112878907
0.295595469614144
0.295413350299818
0.295231759300859
0.29505070096731
0.29487017963423
0.304727851098541
0.304543399160813
0.304359499771396
0.304176157328461
0.303993376214574
0.303811160796605
0.303629515425625
0.303448444436809
0.303267952149342
0.303088042866318
0.324317825338479
0.324128393076843
0.323939562248491
0.32375133735573
0.323563722884022
0.323376723301883
0.323190343060781
0.323004586595042
0.322819458321744
0.322634962640624
0.35148803691816
0.351290304773757
0.35109322593406
0.350896805087236
0.350701046903248
0.350505956033748
0.350311537111974
0.350117794752644
0.349924733551857
0.34973235808699
0.372933863628902
0.372731179669651
0.37252920120272
0.372327933018634
0.372127379888384
0.371927546563326
0.371728437775078
0.371530058235409
0.371332412636138
0.371135505649032
0.393817546818217
0.393610694794525
0.393404601279446
0.393199271146191
0.392994709247104
0.392790920413564
0.392587909455873
0.392385681163152
0.392184240303235
0.391983591622565
0.374280343895322
0.374090043200341
0.373900544202227
0.373711851344549
0.373523969049203
0.373336901716311
0.373150653724124
0.372965229428935
0.372780633164976
0.372596869244331
0.3509012680035
0.350729935220195
0.350559441938401
0.350389792114873
0.350220989684037
0.350053038557912
0.349885942626023
0.349719705755322
0.349554331790106
0.349389824551938
0.332339869820966
0.332185548423627
0.332032100650386
0.331879530022425
0.331727840038014
0.331577034172444
0.331427115877957
0.331278088583671
0.331129955695512
0.330982720596149
0.306412675396306
0.306279454681435
0.306147135355122
0.306015720404535
0.305885212793563
0.305755615462761
0.305626931329289
0.305499163286859
0.305372314205676
0.305246386932383
0.270778514534457
0.270671606393547
0.270565619448089
0.270460556025602
0.270356418430224
0.270253208942673
0.270150929820203
0.270049583296566
0.269949171581973
0.269849696863056
0.225166146407783
0.225090838987965
0.225016463284191
0.224943020837506
0.224870513165776
0.224798941763659
0.224728308102593
0.224658613630768
0.22458985977311
0.224522047931265
0.222389990206453
0.222325098840172
0.222261153012916
0.222198154007504
0.222136103083411
0.222075001476756
0.222014850400289
0.221955651043374
0.221897404571981
0.221840112128669
0.171351926526856
0.171321754989854
0.171292527536364
0.171264244592067
0.171236906559843
0.171210513819777
0.171185066729165
0.171160565622522
0.17113701081159
0.171114402585352
0.167261635799815
0.167242836584817
0.167224983679818
0.167208077235514
0.16719211737994
0.167177104218488
0.16716303783392
0.167149918286382
0.167137745613419
0.167126519829994
0.149095478818872
0.149095154860448
0.14909577297305
0.149097332858812
0.149099834197612
0.14910327664709
0.149107659842679
0.149112983397629
0.149119246903035
0.149126449927862
0.171465375500796
0.171463293628649
0.171462155709203
0.171461961499113
0.171462710732756
0.171464403122258
0.17146703835752
0.171470616106241
0.171475136013944
0.171480597704001
0.180095860849433
0.180098901549681
0.18010288502846
0.18010781092719
0.180113678865166
0.180120488439587
0.180128239225586
0.180136930776254
0.180146562622673
0.180157134273941
0.201467243611767
0.201469046719306
0.201471793615463
0.201475483984877
0.201480117490081
0.20148569377153
0.201492212447627
0.201499673114749
0.201508075347274
0.201517418697616
0.242776692000522
0.242767296902546
0.242758852270501
0.242751358078889
0.242744814279856
0.242739220803212
0.242734577556448
0.242730884424759
0.242728141271064
0.24272634793603
0.253166143073946
0.253161029816519
0.253156868505736
0.253153659022478
0.253151401225351
0.253150094950712
0.253149740012688
0.253150336203199
0.253151883291983
0.253154381026619
0.312411098397266
0.312385877472072
0.312361621848913
0.312338331919118
0.312316008051217
0.312294650590945
0.312274259861256
0.312254836162335
0.312236379771605
0.312218890943742
0.330565529860565
0.330540797584834
0.330517038317545
0.330494252449411
0.330472440348226
0.33045160235888
0.330431738803363
0.330412849980779
0.33039493616736
0.330377997616474
0.344388206471074
0.344366207810225
0.344345188714995
0.344325149520749
0.344306090539879
0.344288012061816
0.344270914353041
0.344254797657098
0.344239662194609
0.344225508163287
0.350894932567188
0.350879401450471
0.350864853974056
0.350851290326744
0.350838710674419
0.350827115160067
0.350816503903786
0.350806877002811
0.350798234531523
0.350790576541474
0.370747732307067
0.370732063964944
0.370717385359774
0.370703696698646
0.370690998165653
0.370679289921913
0.370668572105583
0.370658844831874
0.37065010819307
0.370642362258546
0.360054325048934
0.36005384993608
0.360054362822177
0.360055863554413
0.360058351957302
0.360061827832712
0.360066290959886
0.360071741095472
0.360078177973548
0.360085601305648
0.340633340615394
0.340652463762472
0.340672567257345
0.340693650481201
0.340715712793083
0.340738753529925
0.340762772006588
0.340787767515899
0.340813739328688
0.340840686693827
0.335392147496094
0.335423781159735
0.335456386554145
0.335489962773095
0.335524508888672
0.335560023951322
0.335596506989893
0.335633957011682
0.335672373002479
0.335711753926611
0.303573771110713
0.303631163784039
0.303689509712832
0.303748807378452
0.303809055241452
0.303870251741643
0.303932395298149
0.303995484309468
0.304059517153531
0.304124492187766
0.257883263598479
0.257973265691802
0.258064192775669
0.258156042553937
0.258248812710875
0.258342500911242
0.258437104800363
0.258532622004212
0.258629050129485
0.258726386763688
0.246249841980576
0.246355274114738
0.246461604106763
0.246568829312812
0.246676947070423
0.246785954698594
0.246895849497875
0.247006628750449
0.247118289720228
0.247230829652933
0.201719604052648
0.201856700099746
0.201994654768271
0.202133464668348
0.20227312639296
0.202413636518051
0.202554991602628
0.202697188188871
0.202840222802233
0.202984091951552
0.168118388830899
0.16828141726585
0.168445260479036
0.168609914481308
0.168775375267893
0.168941638818515
0.169108701097511
0.169276558053954
0.16944520562177
0.169614639719864
0.16823270628276
0.168404477016389
0.168577021540834
0.168750335696937
0.168924415311138
0.169099256195611
0.169274854148373
0.169451204953421
0.169628304380847
0.169806148186965
0.17240963993644
0.172587747568606
0.172766587403209
0.172946155172666
0.173126446596212
0.173307457380021
0.173489183217339
0.173671619788606
0.173854762761581
0.174038607791472
0.175114885532956
0.175299675838529
0.17548515532656
0.175671319614336
0.17585816430722
0.176045684998773
0.176233877270888
0.176422736693916
0.176612258826793
0.176802439217172
0.183372342344054
0.183560637123977
0.183749578411613
0.183939161789594
0.184129382829834
0.184320237093656
0.184511720131923
0.184703827485166
0.184896554683713
0.18508989724782
0.199224110365739
0.199411701823531
0.199599898805982
0.199788696966598
0.199978091949282
0.200168079388459
0.200358654909202
0.200549814127363
0.200741552649694
0.200933866073978
0.250640434644726
0.250809134080031
0.250978408148891
0.251148253026277
0.251318664878184
0.251489639861747
0.25166117412535
0.251833263808744
0.252005905043159
0.252179093951418
0.274814686497699
0.274977731013198
0.275141317414985
0.275305442070942
0.275470101340826
0.275635291576377
0.275801009121427
0.27596725031201
0.276134011476468
0.276301288935565
0.30726656794928
0.307419472098896
0.307572889541314
0.307726816948601
0.307881250985392
0.308036188308987
0.308191625569456
0.308347559409737
0.30850398646574
0.308660903366446
0.323481762253227
0.3236323188385
0.323783358962089
0.323934879407466
0.324086876951493
0.32423934836452
0.324392290410484
0.32454569984701
0.324699573425503
0.324853907891253
0.373253399990154
0.373384530222398
0.373516124199899
0.373648179240574
0.373780692656089
0.373913661751939
0.374047083827539
0.374180956176307
0.374315276085748
0.374450040837539
0.376323032037825
0.376457809625111
0.376593024321612
0.376728673408026
0.376864754159627
0.377001263846357
0.377138199732906
0.377275559078799
0.377413339138484
0.377551537161417
0.397648820256292
0.397777869135611
0.397907332933961
0.398037209128297
0.398167495190754
0.398298188588727
0.398429286784952
0.398560787237583
0.398692687400279
0.39882498472228
0.371337850805975
0.371484741180525
0.371632013789861
0.3717796657251
0.371927694073706
0.372076095919583
0.372224868343166
0.372374008421507
0.37252351322837
0.372673379834318
0.377158790236581
0.377307204598415
0.377455973090138
0.377605092823982
0.377754560909373
0.377904374453022
0.378054530559014
0.378205026328895
0.378355858861765
0.378507025254366
0.338474878059179
0.338646790168916
0.338819016872461
0.338991554761509
0.339164400426369
0.339337550456064
0.339511001438433
0.339684749960234
0.339858792607247
0.340033125964371
0.301332177711956
0.301526515085825
0.301721122720562
0.301915996718228
0.302111133181019
0.302306528211386
0.30250217791214
0.302698078386572
0.302894225738564
0.303090616072703
0.289589957156552
0.289793668675879
0.28999760790274
0.290201770776425
0.290406153237673
0.290610751228789
0.290815560693758
0.291020577578365
0.291225797830311
0.29143121739933
0.260622248815256
0.260843558227254
0.26106504668166
0.261286709754288
0.261508543023971
0.261730542072687
0.261952702485682
0.262175019851599
0.262397489762602
0.262620107814498
0.242033578138929
0.242266881276897
0.242500313906619
0.242733871382614
0.242967549063938
0.243201342314322
0.243435246502293
0.243669257001311
0.243903369189896
0.244137578451758
0.218936067527691
0.219183171783032
0.219430352621681
0.21967760513512
0.219924924420996
0.220172305583265
0.22041974373232
0.220667233985132
0.220914771465384
0.221162351303605
0.216944363997225
0.217194246205954
0.217444155035051
0.217694085588612
0.21794403297831
0.218193992323536
0.21844395875153
0.218693927397517
0.218943893404845
0.219193851925113
0.203471560656151
0.203729473780051
0.203987360731964
0.204245216500496
0.204503036083385
0.204760814487636
0.205018546729664
0.205276227835423
0.205533852840551
0.205791416790501
0.208691265263774
0.208947371440157
0.209203402451249
0.209459353415777
0.209715219462931
0.209970995732491
0.210226677374967
0.210482259551729
0.21073773743514
0.210993106208691
0.208076166228718
0.208332888072535
0.208589485592757
0.208845953979501
0.20910228843471
0.209358484172283
0.209614536418208
0.20987044041069
0.210126191400283
0.210381784650021
0.245086298594202
0.245324342039498
0.245562222648533
0.245799936161198
0.246037478330062
0.246274844920481
0.246512031710723
0.246749034492078
0.24698584906898
0.247222471259118
0.281310998586393
0.281530301760162
0.281749408962627
0.281968316483933
0.282187020627612
0.282405517710688
0.282623804063781
0.282841876031208
0.283059729971086
0.283277362255434
0.316356471495022
0.316557222964853
0.316757750601476
0.316958051239564
0.317158121727762
0.317357958928784
0.317557559719494
0.317756920991
0.31795603964874
0.318154912612574
0.331253539834488
0.331445463865785
0.331637136434673
0.331828554678946
0.332019715751078
0.332210616818312
0.332401255062734
0.332591627681357
0.332781731886201
0.332971564904372
0.386908390763434
0.387070806346189
0.387232956616444
0.387394839526542
0.387556453043601
0.387717795149578
0.387878863841331
0.388039657130677
0.388200173044455
0.388360409624579
0.408288907468717
0.408438697808467
0.408588208218003
0.408737437044405
0.408886382649863
0.40903504341173
0.409183417722575
0.409331503990228
0.409479300637835
0.409626806103904
0.403856834059854
0.404006710380602
0.40415628937552
0.404305569471939
0.404454549112871
0.404603226757055
0.404751600879008
0.404899669969073
0.405047432533463
0.405194887094311
0.401628573532397
0.401777263973952
0.401925641100045
0.402073703451061
0.402221449583579
0.402368878070419
0.402515987500685
0.402662776479813
0.402809243629611
0.402955387588306
0.422041138951064
0.4221771649487
0.422312868738071
0.422448249257521
0.422583305461777
0.42271803632198
0.422852440825726
0.422986517977095
0.423120266796686
0.423253686321655
0.404291400459704
0.40443370383453
0.40457567011583
0.404717298171355
0.404858586885815
0.404999535160923
0.405140141915426
0.405280406085141
0.40542032662299
0.405559902499037
0.383005617276299
0.383155844681882
0.38330571848499
0.383455237444185
0.383604400335631
0.383753205953133
0.383901653108176
0.384049740629963
0.384197467365449
0.384344832179382
0.343453076877568
0.343620228678034
0.343787004491051
0.343953402745816
0.344119421890026
0.34428506038993
0.34445031673037
0.344615189414827
0.344779676965468
0.344943777923188
0.349477859090606
0.349638997931488
0.349799747061582
0.349960105151128
0.350120070889251
0.350279642984
0.350438820162389
0.35059760117043
0.35075598477318
0.35091396975477
0.290711331126045
0.290898687736585
0.291085626356627
0.29127214510117
0.29145824210526
0.291643915524041
0.291829163532806
0.292013984327051
0.292198376122524
0.292382337155275
0.272877925269005
0.273070861034532
0.273263355702324
0.273455407346872
0.27364701406347
0.273838173968271
0.274028885198334
0.274219145911678
0.274408954287337
0.274598308525404
0.242643053120799
0.242847561761007
0.243051602557187
0.243255173397003
0.243458272189846
0.243660896866887
0.243863045381138
0.244064715707502
0.244265905842833
0.244466613805988
0.215978597776833
0.216192676015216
0.216406258743677
0.216619343715145
0.216831928705187
0.21704401151207
0.217255589956819
0.217466661883272
0.21767722515814
0.217887277671065
0.229588717392552
0.229791997652667
0.229994763972995
0.23019701447744
0.230398747312959
0.230599960649611
0.230800652680605
0.23100082162235
0.2312004657145
0.231399583220001
0.247315933525549
0.247506135856582
0.247695810653853
0.24788495646814
0.248073571873535
0.248261655467476
0.24844920587079
0.248636221727725
0.24882270170599
0.249008644496789
0.24975951514548
0.249944097067787
0.250128138165906
0.250311637232346
0.250494593083268
0.250677004558521
0.250858870521668
0.251040189860019
0.251220961484657
0.251401184330471
0.276474016611823
0.276640695383365
0.276806828855004
0.276972416364695
0.277137457274003
0.277301950968123
0.277465896855894
0.277629294369817
0.277792142966069
0.277954442124517
0.30896996078956
0.309115736642468
0.309260969734483
0.309405660021593
0.309549807483137
0.309693412121804
0.309836473963635
0.309978993058025
0.310120969477717
0.310262403318805
0.352501656416411
0.352620961650223
0.352739735779034
0.352857979512473
0.352975693582954
0.353092878745655
0.3532095357785
0.353325665482142
0.353441268679941
0.353556346217944
0.378865300386158
0.3789667352339
0.379067653706087
0.379168057050597
0.379267946537552
0.379367323459289
0.379466189130328
0.379564544887336
0.379662392089094
0.379759732116465
0.411261042123765
0.411341673785552
0.41142181078719
0.411501454985539
0.411580608258952
0.411659272507223
0.411737449651538
0.411815141634434
0.41189235041974
0.411969077992535
0.433528647728942
0.433593679985722
0.433658242748728
0.433722338352964
0.43378596915414
0.433849137528619
0.433911845873349
0.43397409660581
0.434035892163945
0.434097235006103
0.43601435370773
0.436073870697096
0.436132942954345
0.436191573041748
0.436249763541639
0.436307517056346
0.43636483620813
0.43642172363911
0.436478182011204
0.436534214006054
0.462180323502801
0.462222718867662
0.462264702732002
0.462306278171876
0.462347448282383
0.462388216177587
0.462428584990438
0.462468557872694
0.462508137994835
0.462547328545987
0.448935160050992
0.448980404853526
0.449025266181919
0.449069747130383
0.449113850811534
0.44915758035632
0.449200938913938
0.449243929651751
0.449286555755206
0.449328820427757
0.411862563934192
0.411922864742489
0.411982803996501
0.412042384507414
0.412101609104491
0.412160480634994
0.412219001964112
0.412277175974889
0.412335005568142
0.412392493662394
0.414678130288531
0.414733830250374
0.414789198158903
0.414844237030213
0.414898949897683
0.414953339811902
0.415007409840583
0.415061163068486
0.41511460259734
0.415167731545754
0.365939650531306
0.366016801931309
0.366093639277476
0.366170165146222
0.366246382131072
0.3663222928426
0.36639789990835
0.366473205972773
0.366548213697154
0.366622925759537
0.359654170968456
0.359731820499694
0.359809180655027
0.359886254091803
0.359963043483861
0.360039551521458
0.3601157809112
0.360191734375964
0.360267414654826
0.360342824502992
0.319733316196741
0.31982853066901
0.319923472397864
0.320018143699567
0.320112546906659
0.320206684367899
0.320300558448194
0.32039417152854
0.32048752600595
0.320580624293392
0.292902388616704
0.293008863838028
0.293115082917103
0.293221047986897
0.293326761196358
0.29343222471035
0.29353744070959
0.293642411390591
0.293747138965595
0.293851625662514
0.275170164107473
0.275283566262163
0.275396729387117
0.275509655540169
0.275622346794746
0.275734805239808
0.275847032979791
0.27595903213454
0.276070804839253
0.276182353244419
0.266446197848743
0.266562226656712
0.266678035124049
0.266793625340101
0.266908999409315
0.267024159451181
0.267139107600168
0.267253846005664
0.267368376831908
0.267482702257932
0.248051724769479
0.24817541605741
0.248298903442322
0.248422188920268
0.248545274502029
0.248668162213044
0.248790854093358
0.248913352197554
0.249035658594697
0.249157775368267
0.24975024821294
0.249871756835162
0.249993082293593
0.250114226734574
0.250235192318539
0.250355981219953
0.250476595627246
0.250597037742751
0.250717309782633
0.250837413976823
0.286534583746071
0.286636574898355
0.286738414310996
0.286840104707915
0.286941648825997
0.287043049415013
0.287144309237539
0.287245431068874
0.287346417696961
0.287447271922305
0.303195930866979
0.303288706759304
0.303381362830465
0.30347390212374
0.30356632769435
0.303658642609374
0.303750849947657
0.303842952799724
0.303934954267688
0.304026857465163
0.305966022712542
0.306056815311552
0.306147519533686
0.306238138560472
0.306328675584458
0.306419133809119
0.306509516448764
0.306599826728441
0.306690067883847
0.306780243161232
0.356020264088963
0.356085748681765
0.356151190093012
0.35621659221751
0.356281958959504
0.356347294232563
0.356412601959469
0.356477886072107
0.356543150511354
0.356608399226965
0.385796761356622
0.385847432647041
0.385898107756198
0.385948791028077
0.385999486814598
0.386050199475491
0.386100933378171
0.38615169289762
0.386202482416261
0.386253306323835
0.405631765469394
0.405673010010289
0.405714307222936
0.405755661763915
0.405797078296247
0.405838561489265
0.405880116018485
0.405921746565469
0.405963457817699
0.406005254468442
0.43124899132051
0.43127837514772
0.431307865098786
0.43133746620019
0.431367183483204
0.431397021983758
0.431426986742292
0.431457082803619
0.431487315216782
0.431517689034913
0.458803364222639
0.458820411911406
0.458837623338529
0.458855003908843
0.458872559030207
0.458890294113355
0.458908214571743
0.458926325821399
0.458944633280773
0.458963142370584
0.478111814375307
0.478121180449246
0.478130769446971
0.47814058703314
0.478150638873673
0.478160930635596
0.478171467986884
0.478182256596303
0.478193302133253
0.478204610267608
0.462175471181466
0.462195339840941
0.462215483900154
0.462235908831106
0.462256620105692
0.462277623195548
0.462298923571899
0.462320526705404
0.462342438066006
0.462364663122774
0.431036622067068
0.431075162228277
0.431114024260714
0.43115321324106
0.431192734244766
0.431232592345905
0.431272792617036
0.431313340129051
0.431354239951037
0.431395497150128
0.412719824242741
0.412771167656927
0.412822878725658
0.41287496227555
0.41292742313079
0.412980266112999
0.413033496041092
0.413087117731139
0.413141135996228
0.413195555646323
0.384161950281841
0.384231727638226
0.384301913157537
0.384372511276455
0.384443526428223
0.384514963042522
0.384586825545338
0.384659118358835
0.384731845901223
0.384805012586629
0.357197107999349
0.357285003436326
0.357373343970178
0.357462133655377
0.357551376542023
0.35764107667573
0.3577312380975
0.357821864843603
0.357912960945459
0.358004530429514
0.324846877841385
0.324956026773629
0.32506565241272
0.325175758353174
0.325286348184366
0.325397425490418
0.32550899385009
0.325621056836668
0.325733618017858
0.325846680955669
0.293125279250833
0.293255769677484
0.293386763896696
0.293518265040902
0.293650276236718
0.293782800604848
0.293915841259983
0.294049401310699
0.29418348385936
0.294318092002019
0.275978902063111
0.276123805472165
0.276269238877441
0.276415205120481
0.276561707036261
0.276708747453097
0.276856329192549
0.277004455069333
0.277153127891224
0.277302350458962
0.259410891909339
0.259570240666865
0.259730142795901
0.259890600845211
0.260051617356298
0.260213194863319
0.260375335892994
0.260538042964522
0.260701318589494
0.260865165271806
0.274576553701457
0.274734778216139
0.274893584807103
0.275052976113989
0.275212954768133
0.275373523392481
0.275534684601496
0.275696441001069
0.275858795188431
0.276021749752059
0.274043409321579
0.274208643044554
0.274374484293875
0.274540935595663
0.274707999466873
0.274875678415202
0.275043974939008
0.275212891527216
0.275382430659233
0.275552594804862
0.291273283562757
0.291436932133404
0.291601217148363
0.291766141230282
0.291931706991569
0.292097917034297
0.29226477395012
0.292432280320175
0.292600438714998
0.292769251694428
0.305542907541514
0.305706736835111
0.305871231634709
0.306036394612211
0.306202228428218
0.30636873573193
0.306535919161056
0.306703781341721
0.306872324888376
0.307041552403704
0.333145171018852
0.333302810674976
0.333461148840469
0.333620188390464
0.333779932187536
0.333940383081599
0.334101543909808
0.334263417496465
0.334426006652917
0.334589314177461
0.37526469873711
0.375409200809578
0.37555444019463
0.375700420137952
0.375847143871168
0.375994614611735
0.37614283556283
0.376291809913251
0.3764415408373
0.376592031494687
0.386596029057762
0.386743123481925
0.386890989614944
0.387039630678817
0.387189049880286
0.387339250410735
0.387490235446075
0.387642008146641
0.387794571657087
0.387947929106274
0.44735534615122
0.447480681698387
0.447606836021229
0.447733812916527
0.447861616163968
0.447990249526033
0.448119716747865
0.448250021557157
0.448381167664024
0.448513158760885
0.46536465925417
0.465489994130845
0.465616189353837
0.465743248750158
0.465871176128312
0.465999975278167
0.466129649970836
0.466260203958553
0.466391640974551
0.46652396473294
0.485534041658282
0.48565871393387
0.48578428893092
0.48591077051909
0.486038162548071
0.48616646884746
0.486295693226635
0.486425839474637
0.486556911360041
0.486688912630838
0.4747486898727
0.47488859611982
0.475029439703963
0.475171224140381
0.475313952923297
0.475457629525781
0.475602257399642
0.475747839975306
0.475894380661705
0.476041882846165
0.477296836985814
0.477445719138417
0.47759557311058
0.477746402215741
0.477898209745148
0.478050998967758
0.478204773130121
