0.00356518581481412
0.00356518581481412
0.00356518581481412
0.00356518581481412
0.00356518581481412
0.00356518581481412
0.00356518581481412
0.00356518581481412
0.00356518581481412
0.00356518581481412
0.0557107871549796
0.0557107871549796
0.0557107871549796
0.0557107871549796
0.0557107871549796
0.0557107871549796
0.0557107871549796
0.0557107871549796
0.0557107871549796
0.0557107871549796
0.0520891753590167
0.0520891753590167
0.0520891753590167
0.0520891753590167
0.0520891753590167
0.0520891753590167
0.0520891753590167
0.0520891753590167
0.0520891753590167
0.0520891753590167
0.0965823431040215
0.0965823431040215
0.0965823431040215
0.0965823431040215
0.0965823431040215
0.0965823431040215
0.0965823431040215
0.0965823431040215
0.0965823431040215
0.0965823431040215
0.100837419729392
0.100837419729392
0.100837419729392
0.100837419729392
0.100837419729392
0.100837419729392
0.100837419729392
0.100837419729392
0.100837419729392
0.100837419729392
0.100833293431585
0.100833293431585
0.100833293431585
0.100833293431585
0.100833293431585
0.100833293431585
0.100833293431585
0.100833293431585
0.100833293431585
0.100833293431585
0.0915621447129336
0.0915621447129336
0.0915621447129336
0.0915621447129336
0.0915621447129336
0.0915621447129336
0.0915621447129336
0.0915621447129336
0.0915621447129336
0.0915621447129336
0.0888766633661093
0.0888766633661093
0.0888766633661093
0.0888766633661093
0.0888766633661093
0.0888766633661093
0.0888766633661093
0.0888766633661093
0.0888766633661093
0.0888766633661093
0.0720884202582745
0.0720884202582745
0.0720884202582745
0.0720884202582745
0.0720884202582745
0.0720884202582745
0.0720884202582745
0.0720884202582745
0.0720884202582745
0.0720884202582745
0.0419040326217363
0.0419040326217363
0.0419040326217363
0.0419040326217363
0.0419040326217363
0.0419040326217363
0.0419040326217363
0.0419040326217363
0.0419040326217363
0.0419040326217363
0.0145344537048866
0.0145344537048866
0.0145344537048866
0.0145344537048866
0.0145344537048866
0.0145344537048866
0.0145344537048866
0.0145344537048866
0.0145344537048866
0.0145344537048866
-0.0155698974085956
-0.0155698974085956
-0.0155698974085956
-0.0155698974085956
-0.0155698974085956
-0.0155698974085956
-0.0155698974085956
-0.0155698974085956
-0.0155698974085956
-0.0155698974085956
-0.0488576621489802
-0.0488576621489802
-0.0488576621489802
-0.0488576621489802
-0.0488576621489802
-0.0488576621489802
-0.0488576621489802
-0.0488576621489802
-0.0488576621489802
-0.0488576621489802
-0.0561199996727446
-0.0561199996727446
-0.0561199996727446
-0.0561199996727446
-0.0561199996727446
-0.0561199996727446
-0.0561199996727446
-0.0561199996727446
-0.0561199996727446
-0.0561199996727446
-0.0870850459332887
-0.0870850459332887
-0.0870850459332887
-0.0870850459332887
-0.0870850459332887
-0.0870850459332887
-0.0870850459332887
-0.0870850459332887
-0.0870850459332887
-0.0870850459332887
-0.107095484292515
-0.107095484292515
-0.107095484292515
-0.107095484292515
-0.107095484292515
-0.107095484292515
-0.107095484292515
-0.107095484292515
-0.107095484292515
-0.107095484292515
-0.0954982119640393
-0.0954982119640393
-0.0954982119640393
-0.0954982119640393
-0.0954982119640393
-0.0954982119640393
-0.0954982119640393
-0.0954982119640393
-0.0954982119640393
-0.0954982119640393
-0.046764177093534
-0.046764177093534
-0.046764177093534
-0.046764177093534
-0.046764177093534
-0.046764177093534
-0.046764177093534
-0.046764177093534
-0.046764177093534
-0.046764177093534
-0.0461198923110274
-0.0461198923110274
-0.0461198923110274
-0.0461198923110274
-0.0461198923110274
-0.0461198923110274
-0.0461198923110274
-0.0461198923110274
-0.0461198923110274
-0.0461198923110274
-0.0226044011165784
-0.0226044011165784
-0.0226044011165784
-0.0226044011165784
-0.0226044011165784
-0.0226044011165784
-0.0226044011165784
-0.0226044011165784
-0.0226044011165784
-0.0226044011165784
0.0104514687630409
0.0104514687630409
0.0104514687630409
0.0104514687630409
0.0104514687630409
0.0104514687630409
0.0104514687630409
0.0104514687630409
0.0104514687630409
0.0104514687630409
0.0432161826160955
0.0432161826160955
0.0432161826160955
0.0432161826160955
0.0432161826160955
0.0432161826160955
0.0432161826160955
0.0432161826160955
0.0432161826160955
0.0432161826160955
0.074667508369421
0.074667508369421
0.074667508369421
0.074667508369421
0.074667508369421
0.074667508369421
0.074667508369421
0.074667508369421
0.074667508369421
0.074667508369421
0.0976449061683658
0.0976449061683658
0.0976449061683658
0.0976449061683658
0.0976449061683658
0.0976449061683658
0.0976449061683658
0.0976449061683658
0.0976449061683658
0.0976449061683658
0.115565409286055
0.115565409286055
0.115565409286055
0.115565409286055
0.115565409286055
0.115565409286055
0.115565409286055
0.115565409286055
0.115565409286055
0.115565409286055
0.138447631178471
0.138447631178471
0.138447631178471
0.138447631178471
0.138447631178471
0.138447631178471
0.138447631178471
0.138447631178471
0.138447631178471
0.138447631178471
0.120318505059096
0.120318505059096
0.120318505059096
0.120318505059096
0.120318505059096
0.120318505059096
0.120318505059096
0.120318505059096
0.120318505059096
0.120318505059096
0.119108606237287
0.119108606237287
0.119108606237287
0.119108606237287
0.119108606237287
0.119108606237287
0.119108606237287
0.119108606237287
0.119108606237287
0.119108606237287
0.0928331965857658
0.0928331965857658
0.0928331965857658
0.0928331965857658
0.0928331965857658
0.0928331965857658
0.0928331965857658
0.0928331965857658
0.0928331965857658
0.0928331965857658
0.0615534354724171
0.0615534354724171
0.0615534354724171
0.0615534354724171
0.0615534354724171
0.0615534354724171
0.0615534354724171
0.0615534354724171
0.0615534354724171
0.0615534354724171
0.0223693128899103
0.0223693128899103
0.0223693128899103
0.0223693128899103
0.0223693128899103
0.0223693128899103
0.0223693128899103
0.0223693128899103
0.0223693128899103
0.0223693128899103
-0.00632793085654792
-0.00632793085654792
-0.00632793085654791
-0.00632793085654791
-0.00632793085654791
-0.00632793085654791
-0.0063279308565479
-0.0063279308565479
-0.0063279308565479
-0.0063279308565479
-0.0310206262229759
-0.0310206262229758
-0.0310206262229758
-0.0310206262229758
-0.0310206262229758
-0.0310206262229758
-0.0310206262229758
-0.0310206262229758
-0.0310206262229758
-0.0310206262229758
-0.0624534761781672
-0.0624534761781672
-0.0624534761781672
-0.0624534761781672
-0.0624534761781672
-0.0624534761781672
-0.0624534761781672
-0.0624534761781672
-0.0624534761781671
-0.0624534761781671
-0.0416606564290901
-0.0416606564290901
-0.0416606564290901
-0.0416606564290901
-0.0416606564290901
-0.0416606564290901
-0.0416606564290901
-0.0416606564290901
-0.0416606564290901
-0.04166065642909
-0.0571964427381942
-0.0571964427381941
-0.0571964427381941
-0.0571964427381941
-0.0571964427381941
-0.0571964427381941
-0.0571964427381941
-0.0571964427381941
-0.0571964427381941
-0.0571964427381941
-0.0680266702683128
-0.0680266702683128
-0.0680266702683128
-0.0680266702683128
-0.0680266702683128
-0.0680266702683128
-0.0680266702683127
-0.0680266702683127
-0.0680266702683127
-0.0680266702683127
-0.0558823502179564
-0.0558823502179564
-0.0558823502179564
-0.0558823502179563
-0.0558823502179563
-0.0558823502179563
-0.0558823502179563
-0.0558823502179563
-0.0558823502179562
-0.0558823502179562
-0.0245650458520763
-0.0245650458520763
-0.0245650458520763
-0.0245650458520762
-0.0245650458520762
-0.0245650458520762
-0.0245650458520761
-0.0245650458520761
-0.0245650458520761
-0.024565045852076
0.0133063498638293
0.0133063498638293
0.0133063498638294
0.0133063498638294
0.0133063498638295
0.0133063498638295
0.0133063498638296
0.0133063498638296
0.0133063498638297
0.0133063498638297
0.034903438458366
0.034903438458366
0.0349034384583661
0.0349034384583662
0.0349034384583662
0.0349034384583663
0.0349034384583664
0.0349034384583665
0.0349034384583665
0.0349034384583666
0.0565613052903832
0.0565613052903833
0.0565613052903834
0.0565613052903835
0.0565613052903836
0.0565613052903837
0.0565613052903838
0.0565613052903839
0.056561305290384
0.0565613052903842
0.0891204108926587
0.0891204108926588
0.089120410892659
0.0891204108926591
0.0891204108926593
0.0891204108926594
0.0891204108926596
0.0891204108926598
0.0891204108926599
0.0891204108926601
0.121024403376444
0.121024403376444
0.121024403376444
0.121024403376445
0.121024403376445
0.121024403376445
0.121024403376445
0.121024403376446
0.121024403376446
0.121024403376446
0.148068882829841
0.148068882829842
0.148068882829842
0.148068882829842
0.148068882829843
0.148068882829843
0.148068882829843
0.148068882829844
0.148068882829844
0.148068882829844
0.141775516936179
0.141775516936179
0.14177551693618
0.14177551693618
0.141775516936181
0.141775516936181
0.141775516936182
0.141775516936182
0.141775516936183
0.141775516936183
0.147531318975703
0.147531318975703
0.147531318975704
0.147531318975705
0.147531318975706
0.147531318975706
0.147531318975707
0.147531318975708
0.147531318975709
0.147531318975709
0.119812562146392
0.119812562146393
0.119812562146394
0.119812562146395
0.119812562146396
0.119812562146397
0.119812562146398
0.1198125621464
0.119812562146401
0.119812562146402
0.103581538921765
0.103581538921766
0.103581538921768
0.103581538921769
0.10358153892177
0.103581538921772
0.103581538921774
0.103581538921775
0.103581538921777
0.103581538921779
0.0782934309774241
0.078293430977426
0.0782934309774281
0.0782934309774301
0.0782934309774323
0.0782934309774345
0.0782934309774369
0.0782934309774393
0.0782934309774418
0.0782934309774444
0.0305388928818205
0.0305388928818233
0.0305388928818262
0.0305388928818292
0.0305388928818323
0.0305388928818356
0.0305388928818389
0.0305388928818424
0.030538892881846
0.0305388928818498
-0.005751430975975
-0.00575143097597096
-0.00575143097596677
-0.00575143097596243
-0.00575143097595793
-0.00575143097595325
-0.00575143097594841
-0.00575143097594338
-0.00575143097593817
-0.00575143097593277
-0.00599068641603896
-0.00599068641603314
-0.00599068641602712
-0.00599068641602087
-0.00599068641601438
-0.00599068641600767
-0.0059906864160007
-0.00599068641599348
-0.00599068641598598
-0.00599068641597822
-0.032713473302631
-0.0327134733026227
-0.032713473302614
-0.0327134733026051
-0.0327134733025958
-0.0327134733025861
-0.0327134733025761
-0.0327134733025658
-0.0327134733025551
-0.0327134733025439
-0.0327872901670543
-0.0327872901670424
-0.03278729016703
-0.0327872901670171
-0.0327872901670038
-0.03278729016699
-0.0327872901669757
-0.0327872901669609
-0.0327872901669456
-0.0327872901669297
-0.0490649712899884
-0.0490649712899713
-0.0490649712899536
-0.0490649712899353
-0.0490649712899163
-0.0490649712898966
-0.0490649712898762
-0.0490649712898551
-0.0490649712898332
-0.0490649712898105
-0.0465661458845638
-0.0465661458845394
-0.0465661458845142
-0.0465661458844881
-0.046566145884461
-0.046566145884433
-0.046566145884404
-0.046566145884374
-0.0465661458843428
-0.0465661458843106
-0.0328165996418917
-0.0328165996418571
-0.0328165996418213
-0.0328165996417842
-0.0328165996417458
-0.032816599641706
-0.0328165996416648
-0.0328165996416221
-0.032816599641578
-0.0328165996415322
0.00210121027090459
0.00210121027095364
0.00210121027100442
0.002101210271057
0.00210121027111142
0.00210121027116778
0.00210121027122612
0.00210121027128652
0.00210121027134905
0.00210121027141377
0.0294027008860097
0.029402700886079
0.0294027008861508
0.0294027008862251
0.029402700886302
0.0294027008863817
0.0294027008864641
0.0294027008865493
0.0294027008866376
0.029402700886729
0.0648135963870338
0.0648135963871316
0.0648135963872328
0.0648135963873376
0.064813596387446
0.0648135963875582
0.0648135963876743
0.0648135963877944
0.0648135963879187
0.0648135963880473
0.107618214369955
0.107618214370093
0.107618214370235
0.107618214370383
0.107618214370535
0.107618214370693
0.107618214370856
0.107618214371025
0.107618214371199
0.10761821437138
0.122941545473529
0.122941545473723
0.122941545473922
0.122941545474129
0.122941545474343
0.122941545474564
0.122941545474793
0.122941545475029
0.122941545475274
0.122941545475526
0.12277583496322
0.12277583496349
0.12277583496377
0.122775834964059
0.122775834964358
0.122775834964667
0.122775834964986
0.122775834965317
0.122775834965659
0.122775834966012
0.156355718646028
0.156355718646405
0.156355718646796
0.156355718647199
0.156355718647616
0.156355718648047
0.156355718648493
0.156355718648954
0.15635571864943
0.156355718649922
0.175838019890082
0.175838019890608
0.175838019891152
0.175838019891713
0.175838019892294
0.175838019892894
0.175838019893514
0.175838019894155
0.175838019894817
0.175838019895501
0.146897852450353
0.146897852451083
0.146897852451838
0.146897852452618
0.146897852453424
0.146897852454256
0.146897852455116
0.146897852456005
0.146897852456923
0.146897852457871
0.143339900420502
0.143339900421514
0.14333990042256
0.14333990042364
0.143339900424755
0.143339900425908
0.143339900427098
0.143339900428327
0.143339900429597
0.143339900430909
0.107397012984389
0.107397012985788
0.107397012987232
0.107397012988724
0.107397012990265
0.107397012991856
0.107397012993499
0.107397012995196
0.107397012996947
0.107397012998756
0.0991784797033172
0.0991784797052456
0.0991784797072366
0.0991784797092922
0.0991784797114145
0.0991784797136055
0.0991784797158675
0.0991784797182027
0.0991784797206132
0.0991784797231017
0.0606237185864544
0.060623718589106
0.060623718591843
0.060623718594668
0.0606237185975839
0.0606237186005936
0.0606237186036998
0.0606237186069057
0.0606237186102144
0.060623718613629
0.0198933708689564
0.0198933708725929
0.0198933708763457
0.0198933708802183
0.0198933708842144
0.0198933708883378
0.0198933708925925
0.0198933708969827
0.0198933709015123
0.0198933709061859
0.0141022720133249
0.0141022720182997
0.0141022720234321
0.014102272028727
0.0141022720341894
0.0141022720398244
0.0141022720456374
0.0141022720516338
0.0141022720578192
0.0141022720641995
0.00859288009394606
0.00859288010073411
0.00859288010773542
0.00859288011495655
0.00859288012240417
0.00859288013008522
0.0085928801380068
0.00859288014617623
0.00859288015460104
0.00859288016328903
-0.0195471971535227
-0.0195471971442842
-0.0195471971347579
-0.019547197124935
-0.0195471971148066
-0.0195471971043635
-0.019547197093596
-0.0195471970824946
-0.019547197071049
-0.0195471970592489
-0.0317175555616209
-0.0317175555490795
-0.0317175555361508
-0.0317175555228229
-0.0317175555090841
-0.0317175554949219
-0.0317175554803238
-0.0317175554652766
-0.0317175554497669
-0.031717555433781
0.00676287540777344
0.00676287542475486
0.00676287544225639
0.00676287546029347
0.00676287547888203
0.00676287549803845
0.00676287551777954
0.00676287553812265
0.00676287555908558
0.00676287558068668
-0.0157274097320869
-0.0157274097091524
-0.0157274096855215
-0.0157274096611737
-0.0157274096360879
-0.0157274096102425
-0.015727409583615
-0.0157274095561825
-0.0157274095279215
-0.0157274094988076
0.0251296979705421
0.0251296980014373
0.0251296980332624
0.0251296980660446
0.0251296980998118
0.0251296981345926
0.0251296981704166
0.0251296982073141
0.0251296982453163
0.0251296982844553
0.0504490512351536
0.050449051276666
0.0504490513194169
0.0504490513634421
0.0504490514087784
0.0504490514554637
0.0504490515035369
0.0504490515530379
0.0504490516040079
0.0504490516564891
0.0821795558831973
0.0821795559388324
0.0821795559961126
0.0821795560550851
0.0821795561157982
0.0821795561783017
0.0821795562426469
0.0821795563088862
0.0821795563770737
0.0821795564472648
0.107204851506664
0.107204851581035
0.107204851657585
0.107204851736377
0.107204851817474
0.10720485190094
0.107204851986844
0.107204852075254
0.107204852166241
0.107204852259877
0.121652803271605
0.121652803370766
0.121652803472807
0.121652803577809
0.121652803685854
0.121652803797029
0.12165280391142
0.121652804029118
0.121652804150216
0.121652804274808
0.16500433619643
0.165004336328306
0.165004336463976
0.165004336603547
0.165004336747127
0.165004336894827
0.165004337046761
0.165004337203047
0.165004337363806
0.165004337529161
0.175659037844247
0.175659038019179
0.175659038199098
0.175659038384142
0.175659038574452
0.175659038770173
0.175659038971454
0.175659039178446
0.175659039391307
0.175659039610198
0.165096137442506
0.165096137673955
0.165096137911941
0.165096138156643
0.165096138408244
0.165096138666932
0.1650961389329
0.165096139206344
0.16509613948747
0.165096139776483
0.203328955018217
0.203328955323654
0.203328955637638
0.2033289559604
0.203328956292175
0.203328956633208
0.203328956983747
0.203328957344048
0.203328957714374
0.203328958094993
0.177726376088989
0.17772637649103
0.177726376904215
0.17772637732884
0.177726377765212
0.177726378213644
0.177726378674458
0.177726379147982
0.177726379634556
0.177726380134525
0.141235237214566
0.141235237742403
0.141235238284729
0.141235238841929
0.141235239414395
0.14123524000253
0.141235240606748
0.141235241227472
0.141235241865138
0.14123524252019
0.102437639342915
0.102437640034121
0.102437640744119
0.1024376414734
0.102437642222469
0.102437642991842
0.10243764378205
0.102437644593636
0.102437645427157
0.102437646283184
0.0776848906916101
0.0776848915944172
0.0776848925215288
0.0776848934735745
0.0776848944511998
0.077684895455066
0.0776848964858508
0.0776848975442486
0.0776848986309712
0.0776848997467476
0.0508284817907326
0.0508284829668767
0.0508284841743718
0.0508284854140215
0.0508284866866493
0.0508284879930986
0.0508284893342336
0.0508284907109396
0.0508284921241236
0.0508284935747145
0.0268306814675273
0.0268306829958104
0.0268306845644254
0.0268306861743951
0.0268306878267671
0.0268306895226142
0.0268306912630353
0.0268306930491558
0.0268306948821282
0.0268306967631329
-0.00286227681264226
-0.00286227483191787
-0.00286227279944722
-0.0028622707139324
-0.00286226857404444
-0.00286226637842253
-0.00286226412567339
-0.00286226181437045
-0.00286225944305317
-0.0028622570102262
-0.0164723241737503
-0.016472321613275
-0.0164723189865874
-0.0164723162920451
-0.0164723135279668
-0.0164723106926315
-0.0164723077842776
-0.0164723048011017
-0.0164723017412583
-0.0164722986028584
-0.0166640604722021
-0.0166640571708433
-0.0166640537849906
-0.0166640503125713
-0.0166640467514646
-0.0166640430994998
-0.016664039354456
-0.0166640355140604
-0.0166640315759872
-0.0166640275378567
-0.0147620189826862
-0.0147620147370802
-0.0147620103839419
-0.0147620059206633
-0.0147620013445765
-0.0147619966529519
-0.0147619918429971
-0.0147619869118556
-0.0147619818566051
-0.0147619766742564
0.0209674356484075
0.0209674410941953
0.0209674466764657
0.0209674523984907
0.0209674582636169
0.0209674642752671
0.0209674704369418
0.0209674767522212
0.0209674832247665
0.0209674898583218
0.0232543656217109
0.023254372588859
0.0232543797287647
0.0232543870455217
0.0232543945433158
0.0232544022264269
0.0232544100992308
0.0232544181662015
0.023254426431913
0.0232544349010416
0.0673969060678649
0.0673969149582761
0.067396924066768
0.0673969333984479
0.067396942958536
0.0673969527523685
0.0673969627853998
0.0673969730632047
0.0673969835914814
0.0673969943760533
0.114482186658626
0.114482197973776
0.114482209563472
0.114482221434067
0.114482233592054
0.114482246044067
0.114482258796884
0.114482271857432
0.114482285232789
0.114482298930186
0.115256644343138
0.115256658706944
0.115256673415442
0.115256688476511
0.115256703898201
0.115256719688737
0.115256735856518
0.115256752410127
0.11525676935833
0.115256786710081
0.158525814885572
0.158525833072053
0.158525851690112
0.158525870749495
0.158525890260153
0.158525910232252
0.158525930676173
0.158525951602517
0.158525973022109
0.158525994946004
0.170350784229102
0.170350807195708
0.170350830701203
0.170350854757604
0.170350879377182
0.170350904572462
0.170350930356236
0.170350956741561
0.170350983741767
0.170351011370464
0.189197591793923
0.189197620721565
0.189197650320246
0.189197680604742
0.189197711590136
0.189197743291822
0.189197775725512
0.189197808907242
0.189197842853378
0.189197877580625
0.183662873547097
0.183662909888051
0.183662947062309
0.183662985087986
0.183663023983566
0.183663063767911
0.183663104460266
0.183663146080268
0.183663188647951
0.183663232183758
0.210963207709879
0.210963253244918
0.210963299811917
0.210963347433018
0.210963396130809
0.210963445928333
0.210963496849092
0.210963548917062
0.210963602156696
0.210963656592935
0.181031016354388
0.181031073260663
0.18103113144139
0.181031190923555
0.181031251734678
0.181031313902824
0.181031377456614
0.18103144242523
0.181031508838432
0.181031576726562
0.157555491352648
0.157555562284059
0.157555634785048
0.157555708888404
0.157555784627558
0.157555862036593
0.157555941150254
0.15755602200396
0.157556104633818
0.157556189076632
0.131945963810838
0.131946051992838
0.131946142102527
0.131946234179633
0.131946328264644
0.131946424398826
0.131946522624235
0.131946622983729
0.131946725520987
0.131946830280516
0.100347336605333
0.100347445946333
0.10034755764827
0.100347671759128
0.100347788327798
0.100347907404093
0.100348029038765
0.100348153283519
0.100348280191031
0.100348409814967
0.0612912058261619
0.0612913410479667
0.0612914791532786
0.0612916201998812
0.0612917642466325
0.0612919113534826
0.0612920615814923
0.0612922149928517
0.0612923716508991
0.0612925316201404
0.0436644923967974
0.0436646591867123
0.0436648294885406
0.0436650033716563
0.0436651809067018
0.043665362165608
0.0436655472216164
0.0436657361493003
0.0436659290245868
0.0436661259247789
0.0341566488677904
0.03415685405532
0.0341570635081474
0.034157277309308
0.0341574955433294
0.0341577182962549
0.0341579456556685
0.0341581777107196
0.034158414552148
0.0341586562723099
0.0316265155461447
0.0316267673074357
0.0316270242344854
0.0316272864263767
0.0316275539839416
0.0316278270097892
0.0316281056083331
0.0316283898858207
0.0316286799503615
0.0316289759119565
0.00697804920989444
0.00697835730331536
0.00697867163544073
0.00697899232413778
0.00697931948931733
0.00697965325296553
0.00697999373917577
0.0069803410741813
0.00698069538638801
0.00698105680640787
-0.0121262846923964
-0.0121259086559211
-0.0121255251062211
-0.0121251339035183
-0.0121247349056556
-0.0121243279680607
-0.0121239129437096
-0.0121234896830899
-0.0121230580341634
-0.0121226178423281
0.0414263742581554
0.0414268320100607
0.0414272987844478
0.041427774746561
0.0414282600644046
0.0414287549087835
0.0414292594533444
0.0414297738746176
0.0414302983520592
0.0414308330680938
0.0488898127834047
0.0488903685359901
0.0488909350926884
0.0488915126482361
0.0488921014005592
0.04889270155082
0.0488933133034625
0.0488939368662602
0.0488945724503633
0.0488952202703463
0.0924689523655141
0.0924696253149238
0.0924703111649748
0.0924710101444323
0.0924717224857346
0.092472448425045
0.0924731882023034
0.0924739420612791
0.0924747102496238
0.0924754930189256
0.120298468103145
0.120299280805142
0.120300108867025
0.120300952556676
0.120301812146192
0.120302687911941
0.12030358013462
0.120304489099315
0.12030541509556
0.120306358417393
0.141139307721993
0.141140286595457
0.14114128370428
0.141142299361143
0.141143333883542
0.141144387593853
0.141145460819393
0.141146553892493
0.141147667150554
0.141148800936121
0.162994631103245
0.162995806992355
0.162997004468121
0.162998223894327
0.162999465640239
0.163000730080677
0.163002017596083
0.163003328572596
0.163004663402123
0.163006022482409
0.208083529890271
0.20808493868905
0.208086372967617
0.208087833147824
0.208089319657745
0.208090832931742
0.208092373410553
0.208093941541364
0.208095537777891
0.208097162580459
0.201223395378839
0.20122507872131
0.201226792051266
0.201228535856286
0.201230310630968
0.201232116877015
0.20123395510332
0.201235825826048
0.201237729568731
0.201239666862345
0.208796043711041
0.208798049729688
0.208800090937776
0.208802167896963
0.208804281176804
0.20880643135484
0.20880861901669
0.208810844756146
0.208813109175264
0.208815412884462
0.221075671763267
0.221078055917786
0.221080481244743
0.221082948388952
0.221085458004067
0.22108801075268
0.221090607306426
0.221093248346078
0.221095934561649
0.221098666652495
0.20167443875034
0.201677264727678
0.20168013873543
0.201683061511345
0.20168603380303
0.201689056368058
0.201692129974072
0.201695255398892
0.201698433430622
0.201701664867762
0.16073458095837
0.160737921643939
0.160741318193862
0.160744771449305
0.160748282262376
0.160751851496242
0.160755480025237
0.160759168734977
0.160762918522474
0.160766730296252
0.147785591963614
0.147789530482141
0.147793533782738
0.147797602821127
0.147801738565125
0.147805941994759
0.147810214102386
0.147814555892812
0.14781896838341
0.147823452604244
0.118197800357646
0.118202431180502
0.118207136901128
0.118211918601558
0.118216777377124
0.118221714336579
0.118226730602225
0.11823182731003
0.118237005609761
0.118242266665104
0.0882379677587035
0.0882433978726391
0.088248914318027
0.0882545183154966
0.0882602111002304
0.088265993922092
0.0882718680457537
0.0882778347508253
0.0882838953319828
0.0882900510990975
0.0662906342588689
0.0662969843889391
0.0663034337270464
0.0663099836451394
0.0663166355310117
0.0663233907884324
0.0663302508372772
0.0663372171136595
0.0663442910700614
0.0663514741754656
0.0274661990756171
0.0274736049526337
0.0274811244859197
0.0274887592117767
0.0274965106836662
0.027504380472341
0.0275123701659781
0.0275204813703107
0.0275287157087597
0.0275370748225671
0.0238927551735735
0.0239013688337643
0.0239101123012814
0.0239189872899685
0.0239279955321495
0.0239371387787602
0.0239464187994794
0.0239558373828606
0.0239653963364628
0.0239750974869816
0.010283296518065
0.0102932876197008
0.0103034265144617
0.0103137151068911
0.0103241553213188
0.0103347491019892
0.0103454984131904
0.0103564052393821
0.0103674715853229
0.0103786994761976
0.0376887142942449
0.0377002714328798
0.0377119963158239
0.0377238910512276
0.0377359577682944
0.0377481986174051
0.0377606157702406
0.0377732114199037
0.0377859877810412
0.0377989470899641
0.0571954118421916
0.0572087438428745
0.0572222656314568
0.0572359795320973
0.05724988789121
0.0572639930775793
0.0572782974824746
0.0572928035197635
0.0573075136260243
0.0573224302606568
0.0663952506973107
0.0664105878587232
0.066426139064733
0.0664419068671162
0.0664578938410093
0.0664741025850124
0.0664905357212928
0.0665071958956853
0.0665240857777925
0.066541208061083
0.10096672738443
0.10098432264644
0.101002158534195
0.101020237837581
0.101038563370819
0.101057137972551
0.101075964505932
0.101095045858711
0.101114384943318
0.101133984696943
0.136095980274238
0.136116110276912
0.136136509909531
0.13615718220911
0.136178130237803
0.136199357082975
0.136220865857272
0.13624265969868
0.136264741770595
0.136287115261881
0.165953687364564
0.165976653363347
0.165999920501478
0.166023492070259
0.16604737138673
0.166071561793716
0.166096066659872
0.166120889379724
0.166146033373707
0.166171502088203
0.195978943399842
0.196005071998455
0.196031535812721
0.196058338393112
0.196085483316183
0.196112974184596
0.196140814627131
0.196169008298702
0.196197558880366
0.196226470079329
0.211284673774227
0.211314317434021
0.211344332989652
0.211374724252929
0.211405495061795
0.211436649280315
0.211468190798661
0.211500123533087
0.21153245142591
0.211565178445481
0.232890637930449
0.232924175212548
0.232958123682325
0.23299248741192
0.233027270499316
0.233062477068286
0.233098111268344
0.233134177274681
0.233170679288107
0.233207621534985
0.222050978449097
0.222088813943817
0.222127102503665
0.222165848456466
0.222205056155205
0.222244729977936
0.222284874327682
0.222325493632338
0.222366592344563
0.222408174941675
0.236099023239361
0.236141587136248
0.236184648496748
0.236228211895614
0.236272281931642
0.236316863227525
0.236361960429719
0.236407578208288
0.236453721256756
0.236500394291947
0.230473582430074
0.230521329681572
0.230569621208421
0.230618461818975
0.230667856344022
0.230717809636599
0.230768326571799
0.23081941204657
0.230871070979512
0.230923308310663
0.195614209919752
0.19566761895213
0.195721621329309
0.195776222074887
0.19583142623277
0.195887238866932
0.195943665061164
0.19600070991882
0.196058378562556
0.196116676134064
0.171007863920332
0.171067434847239
0.171127650238462
0.17118851530906
0.171250035291708
0.171312215436396
0.171375061010124
0.171438577296584
0.171502769595843
0.171567643224018
0.160956032172272
0.161022284469152
0.161089234136233
0.161156886550442
0.161225247103031
0.161294321199217
0.161364114257808
0.16143463171083
0.161505879003146
0.161577861592064
0.110116737092167
0.110190206694023
0.110264428035108
0.110339406618506
0.110415147957708
0.110491657576187
0.110568941006963
0.110647003792164
0.110725851482578
0.110805489637203
0.0876329273716266
0.0877141631621859
0.0877962061385615
0.087879061887919
0.0879627360032678
0.0880472340829689
0.0881325617302357
0.0882187245526285
0.0883057281615421
0.0883935781716873
0.0729510256103364
0.0730405852777068
0.073131008205049
0.0732223000150174
0.0733144663308893
0.0734075127760067
0.0735014449732115
0.0735962685442743
0.0736919891093158
0.0737886122862232
0.0442459924686954
0.0443444377110976
0.0444438023996799
0.044544092137418
0.0446453125220337
0.0447474691453715
0.0448505675927684
0.044954613442418
0.0450596122647277
0.0451655696216698
0.0527470934561612
0.052854984531262
0.0529638507697169
0.053073697693142
0.0531845308113787
0.0532963556218076
0.0534091776086558
0.0535230022422975
0.0536378349785503
0.0537536812579633
0.0682736901893806
0.0683915798120978
0.0685104992008143
0.0686304537277783
0.0687514487463258
0.0688734895901348
0.0689965815724733
0.0691207299854415
0.0692459400992087
0.0693722171612444
0.0772948278339424
0.077423254440247
0.0775527635932589
0.0776833604418504
0.0778150501082684
0.0779478376873329
0.0780817282456313
0.0782167268207069
0.0783528384202426
0.0784900680212395
0.0994116289391559
0.0995511093472168
0.0996917224953674
0.0998334732295737
0.0999763663609418
0.100120406664869
0.100265598880191
0.10041194770832
0.100559457812388
0.100708133816377
0.111319550222953
0.111470571737769
0.111622772780825
0.111776157810757
0.111930731242662
0.112086497447204
0.112243460749723
0.112401625429338
0.112560995718047
0.112721575799826
0.149520149076843
0.149683161100056
0.149847395171043
0.150012855272593
0.15017954533491
0.150347469234697
0.150516630794227
0.150687033780424
0.150858681903933
0.151031578818192
0.173711854317594
0.173887259540176
0.174063924161253
0.174241851596101
0.174421045198114
0.174601508257869
0.174783244002176
0.174966255593148
0.175150546127248
0.175336118634352
0.214710699496076
0.214898844767735
0.215088280693045
0.215279010026076
0.215471035449585
0.215664359574068
0.215858984936814
0.216054914000961
0.216252149154553
0.216450692709588
0.252824175845874
0.253025342830919
0.253227824687733
0.253431623414724
0.253636740929554
0.253843179068193
0.254050939583992
0.25426002414674
0.254470434341737
0.254682171668861
0.266000909424057
0.266215305168744
0.266431032023392
0.266648091136936
0.266866483568272
0.267086210285344
0.267307272164233
0.267529669988249
0.267753404447025
0.267978476135618
0.264876388860062
0.265104136410668
0.265333222399851
0.26556364703543
0.26579541042621
0.266028512581097
0.266262953408236
0.266498732714143
0.266735850202845
0.266974305475026
0.297027603836956
0.29726873306054
0.297511198241145
0.297754998557656
0.298000133081435
0.298246600775501
0.298494400493714
0.298743530979981
0.298993990867448
0.299245778677718
0.256040107101629
0.256294545872215
0.256550307453342
0.256807389912677
0.257065791202503
0.257325509158981
0.257586541501412
0.257848885831511
0.258112539632691
0.258377500269357
0.243931778055261
0.244199343976583
0.2444682081056
0.244738367323781
0.245009818390188
0.245282557940825
0.245556582487998
0.245831888419682
0.24610847199891
0.246386329363158
0.218929694744151
0.219210087585677
0.219491741865414
0.219774653212763
0.2200588171287
0.220344228985236
0.220630884024889
0.220918777360169
0.221207903973075
0.221498258714605
0.193433879380502
0.193726674405896
0.19402068132219
0.194315894451731
0.194612307983608
0.19490991597324
0.195208712341975
0.195508690876713
0.19580984522953
0.196112168917323
0.173279185817149
0.173583828183186
0.173889619620486
0.174196553101967
0.17450462146381
0.174813817405189
0.175124133488019
0.175435562136724
0.175748095638009
0.176061726140658
0.11787426208659
0.118190062485705
0.118506935503195
0.118824872734424
0.119143865636048
0.119463905525905
0.119784983582928
0.120107090847063
0.120430218219218
0.120754356461217
0.107092197189429
0.107418328900164
0.107745442931574
0.108073529489094
0.108402578639129
0.108732580309122
0.109063524287635
0.109395400224448
0.109728197630677
0.110061905878909
0.0954654611295457
0.0958009586262264
0.0961373342531398
0.0964745768304868
0.0968126750408959
0.0971516174296696
0.0974913924050501
0.0978319882385044
0.0981733930650269
0.0985155948834631
0.115558510011363
0.115902269267293
0.116246788698289
0.116592055762209
0.116938057782662
0.117284781949448
0.117632215319012
0.117980344814929
0.118329157228392
0.118678639218734
0.120711500260361
0.121062280857721
0.121413690224255
0.121765714497413
0.122118339685661
0.122471551669118
0.122825336200211
0.123179678904351
0.123534565280625
0.123889980702514
0.139211744815902
0.139568173950723
0.1399250875054
0.140282470358529
0.14064030726697
0.140998582866684
0.141357281673585
0.141716388084413
0.142075886377633
0.142435760714342
0.166540743938141
0.166901322380353
0.167262228654597
0.167623446462047
0.167984959391378
0.168346750919797
0.168708804414097
0.169071103131729
0.169433630221888
0.169796368726629
0.20943557221203
0.209798682249192
0.210161952195632
0.210525364676322
0.210888902214932
0.211252547235052
0.21161628206144
0.211980088921285
0.212343949945486
0.212707847169954
0.229761122322237
0.230125037681632
0.230488934792378
0.230852795323807
0.231216600857036
0.231580332886384
0.231943972820797
0.232307501985289
0.232670901622413
0.233034152893733
0.252506366060004
0.252869263767984
0.253231956124012
0.253594423980862
0.253956648117983
0.254318609243077
0.254680287993701
0.255041664938882
0.255402720580746
0.255763435356162
0.290600362105092
0.290960336205541
0.291319910375335
0.291679064807107
0.292037779636703
0.292396034944917
0.292753810759245
0.293111087055656
0.293467843760366
0.29382406075164
0.316148773795794
0.316503850812237
0.316858327480477
0.317212183505194
0.317565398552291
0.317917952250774
0.318269824194638
0.318620993944766
0.31897144103084
0.319321144953268
0.332710279214828
0.333058435203759
0.333405786374008
0.333752312128335
0.334097991850009
0.334442804904795
0.334786730642955
0.335129748401255
0.335471837504984
0.335812977269979
0.356037165676672
0.356376344684105
0.356714512264022
0.35705164771491
0.357387730336067
0.357722739429686
0.358056654302935
0.358389454270046
0.358721118654421
0.359051626790728
0.338845264074372
0.339173397774184
0.339500313318682
0.339825990108773
0.34015040756724
0.340473545140878
0.340795382302638
0.341115898553768
0.341435073425965
0.341752886483524
0.341575855580779
0.341890883843124
0.34220448920088
0.342516651370316
0.342827350111101
0.343136565228472
0.343444276575395
0.343750464054737
0.344055107621433
0.344358187284657
0.339616403770363
0.339916295881947
0.340214564464679
0.340511189766357
0.340806152099851
0.341099431845267
0.341391009452104
0.341680865441418
0.341968980407971
0.342255335022391
0.289379284053673
0.289662060289898
0.289943018662518
0.290222140167063
0.290499405885632
0.290774796989017
0.29104829473883
0.291319880489616
0.291589535690962
0.291857241889603
0.270663530963824
0.270927284196327
0.271189033670147
0.271448761341503
0.271706449274174
0.271962079641554
0.272215634728702
0.272467096934383
0.2727164487731
0.272963672877114
0.236953036489356
0.237195953501827
0.237436691402992
0.237675233316153
0.237911562492323
0.23814566231218
0.23837751628801
0.238607108065641
0.238834421426363
0.239059440288833
0.210696177158515
0.210916559339375
0.211134599621025
0.21135028249039
0.211563592581089
0.211774514675262
0.211983033705373
0.212189134756007
0.21239280306564
0.212594024028407
0.217085930905034
0.217282213987794
0.217476006857378
0.217667295547818
0.217856066257351
0.218042305350084
0.218225999357628
0.218407134980728
0.218585699090859
0.218761678731818
0.184614396429189
0.184785168960278
0.18495331920306
0.185118834906074
0.18528170399781
0.185441914588181
0.185599454969966
0.185754313620235
0.185906479201756
0.186055940564375
0.176424471852133
0.17656849208159
0.176709775777666
0.176848312551921
0.176984092209578
0.177117104750782
0.177247340371816
0.177374789466315
0.17749944262644
0.17762129064404
0.184105610550877
0.184221821463358
0.18433520081819
0.18444574021706
0.184553431466767
0.184658266580238
0.184760237777508
0.184859337486688
0.184955558344901
0.185048893199192
0.204038455576951
0.204125997808629
0.204210633845791
0.204292357383779
0.204371162332029
0.204447042814832
0.204519993172061
0.204590007959873
0.204657081951391
0.204721210137351
0.237258490665051
0.237316713085646
0.237371975984671
0.237424275229281
0.237473606907093
0.237519967326671
0.237563353017987
0.237603760732857
0.237641187445342
0.237675630352129
0.25575786899754
0.255786336775212
0.255811813676353
0.255834297791371
0.255853787434768
0.255870281145355
0.255883777686431
0.255894276045937
0.255901775436588
0.255906275295966
0.307407929837661
0.307406429847036
0.307401929987659
0.307394430597008
0.307383932237501
0.307370435696426
0.307353941985839
0.307334452342441
0.307311968227423
0.307286491326282
0.325152348103275
0.325120891582525
0.325086448675738
0.325049021963253
0.325008614248383
0.324965228557067
0.324918868137489
0.324869536459677
0.324817237215067
0.324761974316042
0.358917887928289
0.358856710338915
0.358792582152955
0.358725508161437
0.358655493373624
0.358582543016396
0.358506662533593
0.358427857585343
0.358346134047355
0.358261498010193
0.365747810014377
0.365657368106155
0.365564033251864
0.365467812393651
0.365368712684471
0.365266741487201
0.36516190637373
0.365054215124023
0.364943675725153
0.364830296370321
0.386843150983013
0.38672411711527
0.38660226909767
0.386477615937545
0.386350166843046
0.386219931222012
0.386086918680809
0.385951139023151
0.385812602248897
0.385671318552821
0.399506659900426
0.399359913718422
0.399210452355803
0.399058286774282
0.398903428124013
0.398745887742228
0.398585677151857
0.398422808060121
0.398257292357107
0.398089142114325
0.38219487085915
0.382021488469682
0.381845508828723
0.381666944718592
0.381485809095493
0.381302115087948
0.381115875995216
0.380927105285683
0.380735816595243
0.380542023725658
0.367352824049643
0.36715406488221
0.366952843919443
0.36674917560981
0.366543074559177
0.366334555529065
0.366123633434893
0.365910323344193
0.365694640474829
0.365476600193178
0.350740948435841
0.350518240013705
0.350293221151236
0.350065907790513
0.349836316012882
0.349604462037052
0.349370362217196
0.349134033041025
0.348895491127864
0.3486547532267
0.321822104474588
0.321577025353246
0.321329801249232
0.321080449410515
0.320828987204834
0.320575432117686
0.320319801750306
0.320062113817635
0.319802386146279
0.319540636672459
0.276533693041597
0.276267954199681
0.27600024800104
0.275730592799694
0.275459007048908
0.275185509299094
0.274910118195709
0.274632852477141
0.274353730972596
0.274072772599976
0.258681822558235
0.25839724754731
0.25811089293289
0.257822777966337
0.257532921977023
0.257241344370186
0.25694806462477
0.256653102291276
0.256356476989598
0.256058208406866
0.239721586728778
0.23942009090345
0.239117011240227
0.23881236767353
0.238506180194188
0.238198468847265
0.237889253729895
0.237578554989109
0.237266392819673
0.236952787461918
0.219132894587893
0.218816463745922
0.218498650688364
0.218179475816167
0.217858959565037
0.217537122403277
0.217213984829639
0.216889567371172
0.216563890581081
0.216236975036583
0.168984019370351
0.168654688134064
0.168324179997757
0.167992515613382
0.16765971564627
0.167325800773022
0.166990791679403
0.166654709058245
0.166317573607358
0.16597940602744
0.193682041825015
0.193341872090329
0.193000732325334
0.192658643221605
0.192315625463305
0.191971699725145
0.191626886670359
0.191281206948685
0.190934681194358
0.190587330024109
0.196690296251127
0.196341356019282
0.195991652096855
0.19564120501078
0.195290035260653
0.194938163316789
0.194585609618305
0.194232394571209
0.193878538546492
0.193524061878251
0.195790838214416
0.195435181104457
0.195078964113183
0.194722207408473
0.194364931112062
0.194007155297734
0.19364889998952
0.193290185159924
0.192931030728152
0.192571456558358
0.202463847203793
0.202103492921543
0.201742778146127
0.201381722504263
0.201020345559082
0.200658666808458
0.200296705683364
0.199934481546243
0.199572013689393
0.199209321333365
0.242393443871677
0.24203035988408
0.241667108612759
0.241303708975635
0.240940179811143
0.240576539876731
0.240212807847382
0.239849002314153
0.239485141782725
0.239121244671978
0.265512312571741
0.265148397204765
0.264784499980297
0.264420638956097
0.264056832096252
0.263693097269863
0.263329452249743
0.262965914711134
0.262602502230443
0.262239232284003
0.279977863245765
0.279614930390402
0.279252191885662
0.278889664795503
0.278527366077871
0.27816531258357
0.277803521055151
0.277442008125821
0.277080790318371
0.276719884044127
0.313054081765396
0.31269384734053
0.312333973003821
0.311974474710601
0.311615368299773
0.311256669492872
0.310898393893158
0.310540556984717
0.310183174131588
0.309826260576911
0.332123450756146
0.331767521040036
0.331412105618147
0.331057219241873
0.330702876537733
0.33034909200664
0.329995880023183
0.329643254834935
0.329291230561777
0.328939821195243
0.354682643379562
0.354332505284331
0.353983023293988
0.353634210880525
0.353286081384609
0.352938648015044
0.352591923848259
0.352245921827806
0.351900654763885
0.351556135332889
0.350879018460481
0.350536031787093
0.350193829968657
0.349852425142134
0.34951182930868
0.3491720543333
0.348833111944526
0.348495013734117
0.34815777115677
0.347821395529856
0.332933789154144
0.332599180829693
0.332265472581461
0.331932675175232
0.331600799238419
0.331269855259906
0.330939853589913
0.330610804439878
0.330282717882358
0.329955603850948
0.33697536969046
0.336650229955897
0.336326091713897
0.336002964341743
0.335680857077607
0.335359779020585
0.335039739130728
0.334720746229104
0.334402808997875
0.334085935980385
0.312598620272731
0.312283900758044
0.311970270255394
0.31165773675411
0.311346308105405
0.311035992022574
0.310726796081196
0.310418727719353
0.310111794237871
0.309806002800571
0.271463944237125
0.271160457832976
0.270858134145183
0.270556979792367
0.270257001257629
0.269958204888893
0.269660596899262
0.269364183367385
0.269068970237843
0.26877496332155
0.243067916261461
0.242776338671787
0.242485983930257
0.242196857317351
0.241908963982071
0.241622308942418
0.241336897085882
0.241052733169945
0.240769821822596
0.240488167542859
0.207741424301228
0.207462297140634
0.207184439776387
0.206907856197159
0.206632550265474
0.206358525718302
0.206085786167665
0.205814335101257
0.205544175883076
0.20527531175406
0.17535935664156
0.175093091924715
0.174828131288049
0.174564477486868
0.174302133156769
0.174041100814338
0.17378138285786
0.173522981568034
0.1732658991087
0.173010137527572
0.133009225567791
0.132756111425447
0.132504323615178
0.132253863727711
0.132004733241444
0.13175693352323
0.131510465829165
0.131265331305385
0.131021530988874
0.13077906580827
0.146076528254955
0.145836735702802
0.145598280430621
0.14536116294192
0.145125383636013
0.144890942808873
0.144657840653986
0.144426077263207
0.144195652627627
0.143966566638445
0.1176177875181
0.117391378100108
0.117166306411516
0.11694257195274
0.116720174128724
0.116499112249835
0.116279385532762
0.116060993101427
0.115843933987883
0.115628207133234
0.128406735819595
0.128193669946816
0.127981932619692
0.127771522424695
0.127562437861947
0.127354677346149
0.127148239207509
0.12694312169268
0.126739322965688
0.126536841108874
0.151070150822505
0.150870296631009
0.150671753075974
0.150474517922382
0.150278588858235
0.150083963495488
0.149890639371006
0.149698613947497
0.149507884614466
0.149318448689156
0.17719404754289
0.177007190100441
0.176821617593336
0.176637327059236
0.176454315468265
0.176272579723957
0.176092116664202
0.175912923062189
0.175734995627341
0.175558331006264
0.177150507155599
0.176976357855291
0.176803460941032
0.176631812817523
0.176461409831326
0.176292248271796
0.176124324372009
0.175957634309692
0.175792174208142
0.175627940137155
0.217498006376984
0.217336212367091
0.217175632285313
0.217016261996603
0.216858097316989
0.21670113401447
0.216545367809928
0.216390794378023
0.216237409348091
0.216085208305035
0.237183785980635
0.237033939492766
0.236885263488778
0.23673775338471
0.236591404556581
0.236446212341259
0.236302172037332
0.236159278905964
0.236017528171757
0.235876915023607
0.291268143677211
0.291129791129259
0.290992561528262
0.290856449928727
0.290721451353651
0.290587560795352
0.290454773216288
0.29032308354987
0.290192486701279
0.290062977548267
0.297970441857791
0.297843092623492
0.297716815561456
0.297591605447689
0.297467457034721
0.297344365052382
0.297222324208573
0.297101329190026
0.296981374663062
0.296862455274345
0.307189375613753
0.307072510366617
0.306956664087204
0.306841831350951
0.306728006717309
0.306615184730461
0.306503359920032
0.306392526801795
0.30628267987837
0.306173813639915
0.296623532584672
0.296516611140216
0.296410653783274
0.296305654960964
0.296201609111314
0.296098510663917
0.29599635404058
0.295895133655964
0.295794843918226
0.295695479229644
0.299928055422938
0.299830524019103
0.299733900842196
0.299638180277154
0.299543356706092
0.299449424508887
0.299356378063769
0.299264211747897
0.299172919937929
0.299082497010587
0.293043831180222
0.292955129151344
0.292867279141199
0.292780275532285
0.292694112709893
0.292608785062626
0.292524286982925
0.292440612867576
0.292357757118218
0.292275714141843
0.291789359690424
0.291708925504845
0.291629287350221
0.291550439659807
0.291472376874606
0.29139509344383
0.291318583825351
0.291242842486149
0.291167863902751
0.291093642561666
0.247009721587583
0.246936998232702
0.246865015643784
0.246793768351468
0.246723250898446
0.246653457839855
0.246584383743669
0.24651602319108
0.246448370776871
0.24638142110979
0.214061879656469
0.213996319367547
0.213931445739371
0.213867253440112
0.213803737153652
0.213740891579924
0.213678711435236
0.213617191452588
0.21355632638199
0.213496110990767
0.188637967584492
0.188579035924756
0.188520738353248
0.188463069709513
0.188406024851856
0.188349598657624
0.188293786023462
0.188238581865579
0.188183981120002
0.188129978742823
0.157192824145292
0.157140003454663
0.157087766123511
0.15703610719057
0.156985021715799
0.156934504780599
0.156884551488021
0.156835156962975
0.156786316352421
0.156738024825571
0.1381159928371
0.138068785075222
0.138022112040031
0.137975968991564
0.137930351212995
0.137885254010801
0.137840672714917
0.13779660267889
0.137753039280023
0.137709977919524
0.129439185858972
0.129397114875114
0.129355532278001
0.129314433565776
0.12927381426112
0.129233669911375
0.129193996088644
0.129154788389904
0.129116042437103
0.129077753877255
0.118764064121673
0.118726677389499
0.118689735142622
0.118653233129195
0.118617167122859
0.118581532922801
0.11854632635383
0.118511543266434
0.118477179536839
0.118443231067062
0.129913892482034
0.12988076234136
0.129848035321788
0.129815707428965
0.129783774694539
0.129752233176194
0.129721078957673
0.129690308148807
0.129659916885531
0.1296299013299
0.136418754843492
0.13638947929387
0.136360568094907
0.136332017513244
0.136303823841673
0.136275983399137
0.136248492530724
0.136221347607653
0.136194545027262
0.136168081212996
0.154510560117364
0.154484763209995
0.154459294495499
0.154434150501516
0.154409327781665
0.154384822915508
0.154360632508522
0.154336753192051
0.15431318162327
0.154289914485139
0.199457479134103
0.199434811009056
0.19941243751777
0.199390355445855
0.199368561604446
0.19934705283015
0.199325825984977
0.199304877956284
0.199284205656706
0.199263806024086
0.22329667113184
0.223276807747166
0.223257207993541
0.223237868908934
0.223218787556155
0.223199961022774
0.223181386421042
0.223163060887805
0.223144981584418
0.223127145696663
0.243111682462033
0.243094325060128
0.243077202776838
0.24306031289473
0.243043652720338
0.243027219584058
0.243011010840054
0.242995023866161
0.242979256063778
0.242963704857768
0.27098668410546
0.270971558460124
0.270956641825491
0.270941931719231
0.270927425681942
0.270913121277046
0.270899016090677
0.270885107731564
0.270871393830924
0.270857872042341
0.321359969932411
0.321346825417607
0.321333866108684
0.321321089747547
0.321308494097884
0.321296076945048
0.321283836095937
0.321271769378871
0.321259874643467
0.321248149760523
0.320454467168015
0.320443075686468
0.320431847795593
0.320420781449653
0.320409874623461
0.32039912531226
0.320388531531589
0.320378091317162
0.320367802724732
0.320357663829971
0.29797058937865
0.297960744185253
0.297951043034734
0.297941484081132
0.29793206549775
0.297922785477031
0.297913642230421
0.29790463398824
0.297895758999552
0.297887015532035
0.315150008549675
0.315141523001315
0.315133163887508
0.315124929549059
0.315116818344726
0.315108828651089
0.315100958862414
0.315093207390525
0.315085572664668
0.315078053131382
0.314906845791662
0.314899552051641
0.314892368946237
0.314885294989835
0.314878328713452
0.314871468664608
0.314864713407187
0.314858061521315
0.314851511603222
0.314845062265114
0.286644809540966
0.286638557262699
0.286632401495584
0.286626340914426
0.286620374209355
0.286614500085693
0.286608717263832
0.286603024479098
0.286597420481628
0.28659190403624
0.249182214091137
0.24917686910245
0.249171608047107
0.249166429747376
0.249161333039571
0.249156316773926
0.24915137981447
0.249146521038904
0.249141739338474
0.249137033617848
0.227547594533927
0.227543037539984
0.22753855331915
0.227534140828552
0.227529799038126
0.227525526930499
0.227521323500865
0.227517187756867
0.227513118718478
0.227509115417881
0.173226891904961
0.173223017224754
0.173219205450976
0.173215455663478
0.173211766953739
0.173208138424744
0.173204569190878
0.173201058377806
0.173197605122364
0.173194208572441
0.174818444172335
0.174815158520787
0.174811927083647
0.174808749051916
0.174805623627097
0.174802550021083
0.174799527456054
0.174796555164369
0.174793632388454
0.174790758380703
0.156020838222293
0.156018059547374
0.156015327456528
0.156012641240956
0.156010000201304
0.156007403647558
0.156004850898945
0.156002341283831
0.155999874139622
0.155997448812664
0.125899200679887
0.12589685706174
0.125894553352542
0.125892288933424
0.125890063193968
0.125887875532118
0.125885725354082
0.125883612074241
0.125881535115054
0.125879493906966
0.130697775855584
0.130695804472524
0.130693867178909
0.130691963436227
0.130690092713498
0.130688254487194
0.130686448241147
0.130684673466465
0.130682929661444
0.130681216331488
0.150457327020361
0.150455673184735
0.150454048382167
0.15045245214564
0.150450884014829
0.150449343536018
0.15044783026202
0.1504463437521
0.150444883571892
0.150443449293326
0.143875939669724
0.143874555935017
0.14387319685473
0.143871862025204
0.143870551048691
0.143869263533285
0.143867999092847
0.143866757346935
0.143865537920729
0.143864340444963
0.178485681379468
0.178484526718643
0.178483392933076
0.178482279675015
0.178481186601915
0.178480113376375
0.178479059666065
0.178478025143666
0.178477009486802
0.178476012377979
0.200469626992568
0.200468666046537
0.200467722724704
0.200466796728459
0.200465887763764
0.200464995541085
0.200464119775336
0.20046326018582
0.200462416496169
0.200461588434286
0.233215289745145
0.233214492139307
0.233213709370005
0.233212941181661
0.233212187322685
0.233211447545427
0.233210721606116
0.233210009264814
0.233209310285356
0.233208624435305
0.289155828866372
0.289155168592461
0.289154520772478
0.289153885188375
0.289153261625577
0.289152649872934
0.289152049722674
0.28915146097035
0.289150883414803
0.289150316858104
0.305719508902702
0.305718963762638
0.305718429046604
0.305717904569162
0.305717390147889
0.305716885603328
0.305716390758949
0.305715905441106
0.305715429478992
0.305714962704605
0.305560551194231
0.305560102302283
0.305559662110448
0.305559230461521
0.305558807200902
0.305558392176551
0.305557985238956
0.305557586241093
0.30555719503839
0.30555681148869
0.318246441601772
0.318246072941087
0.318245711521068
0.318245357208861
0.318245009873855
0.318244669387645
0.318244335623997
0.318244008458817
0.31824368777012
0.318243373437995
0.320294895248077
0.320294593277506
0.320294297315911
0.32029400725137
0.320293722973883
0.320293444375339
0.320293171349491
0.320292903791926
0.320292641600035
0.320292384672985
0.334571994865021
0.334571748172128
0.334571506451966
0.334571269610537
0.334571037555486
0.334570810196073
0.334570587443147
0.334570369209126
0.334570155407965
0.334569945955138
0.332688963188925
0.332688762185125
0.332688565284933
0.332688372409647
0.332688183481963
0.332687998425954
0.332687817167048
0.332687639632003
0.332687465748887
0.332687295447059
0.288205823854987
0.288205660508859
0.288205500539618
0.28820534388157
0.288205190470211
0.288205040242201
0.288204893135351
0.2882047490886
0.288204608041997
0.288204469936686
0.263290240594632
0.263290108199606
0.263289978575671
0.263289851668158
0.263289727423404
0.263289605788733
0.263289486712438
0.263289370143768
0.26328925603291
0.263289144330973
0.245621807883201
0.245621700856044
0.245621596096515
0.245621493559258
0.245621393199763
0.245621294974354
0.245621198840172
0.245621104755161
0.245621012678056
0.245620922568366
0.21365445161863
0.213654365325343
0.213654280882529
0.213654198252672
0.213654117398966
0.213654038285305
0.21365396087627
0.213653885137115
0.213653811033759
0.213653738532771
0.188732839076707
0.188732769682709
0.188732701794579
0.188732635381377
0.188732570412761
0.188732506858972
0.188732444690825
0.188732383879702
0.188732324397537
0.18873226621681
0.16410163064977
0.164101574991485
0.164101520555245
0.164101467315612
0.164101415247642
0.164101364326883
0.164101314529359
0.164101265831568
0.164101218210467
0.164101171643468
0.143362331197471
0.143362286672686
0.143362243136879
0.143362200569195
0.143362158949193
0.143362118256839
0.143362078472494
0.143362039576914
0.143362001551237
0.143361964376979
0.136384099872339
0.136384064346937
0.13638402961969
0.136383995673554
0.136383962491824
0.136383930058134
0.136383898356449
0.136383867371055
0.136383837086558
0.136383807487877
0.139598043848837
0.139598015577758
0.139597987949062
0.139597960948856
0.139597934563531
0.139597908779757
0.139597883584476
0.139597858964899
0.139597834908498
0.139597811403003
0.16029842726458
0.160298404825092
0.160298382901197
0.160298361481605
0.160298340555261
0.16029832011134
0.160298300139241
0.160298280628583
0.1602982615692
0.160298242951141
0.174807353991616
0.17480733622717
0.17480731887542
0.174807301927217
0.174807285373608
0.174807269205826
0.174807253415291
0.174807237993601
0.174807222932531
0.174807208224034
0.211781789274262
0.211781775247435
0.211781761550037
0.21178174817468
0.211781735114132
0.211781722361315
0.211781709909303
0.211781697751316
0.21178168588072
0.211781674291024
0.236942517228252
0.236942506181433
0.236942495396861
0.236942484868584
0.236942474590779
0.236942464557747
0.236942454763915
0.236942445203826
0.236942435872146
0.236942426763654
0.263998122903564
0.263998114226237
0.263998105757109
0.263998097491397
0.263998089424425
0.263998081551621
0.263998073868509
0.263998066370714
0.263998059053957
0.26399805191405
0.306199333283579
0.306199326485184
0.306199319851628
0.306199313379082
0.306199307063801
0.306199300902125
0.306199294890474
0.306199289025346
0.306199283303319
0.306199277721047
0.333687449401684
0.333687444089178
0.333687438906827
0.333687433851574
0.33368742892043
0.333687424110472
0.333687419418845
0.333687414842755
0.333687410379473
0.333687406026331
0.363348966442123
0.363348962301496
0.363348958263361
0.363348954325282
0.363348950484881
0.363348946739831
0.36334894308786
0.363348939526747
0.36334893605432
0.363348932668459
0.357081877522924
0.357081874304024
0.357081871165614
0.35708186810576
0.357081865122573
0.357081862214206
0.357081859378857
0.357081856614764
0.357081853920206
0.357081851293502
0.328301716511891
0.328301714016004
0.328301711583156
0.328301709211817
0.328301706900489
0.328301704647714
0.328301702452064
0.328301700312146
0.328301698226598
0.328301696194093
0.334372603469575
0.334372601539289
0.334372599658241
0.334372597825222
0.334372596039052
0.334372594298577
0.334372592602672
0.334372590950238
0.334372589340202
0.334372587771515
0.286505779190936
0.286505777701904
0.286505776251224
0.286505774837946
0.286505773461138
0.286505772119894
0.286505770813327
0.286505769540574
0.286505768300789
0.28650576709315
0.276351717445913
0.27635171630017
0.276351715184215
0.276351714097302
0.276351713038699
0.276351712007695
0.276351711003594
0.276351710025717
0.276351709073402
0.276351708146001
0.247096468922982
0.247096468043533
0.247096467187152
0.247096466353251
0.247096465541258
0.247096464750614
0.247096463980774
0.247096463231206
0.247096462501391
0.247096461790821
0.219902047025718
0.219902046352169
0.219902045696416
0.219902045058002
0.219902044436476
0.219902043831401
0.219902043242349
0.219902042668904
0.219902042110657
0.21990204156721
0.196674117995006
0.196674117480006
0.196674116978669
0.196674116490635
0.196674116015549
0.196674115553068
0.196674115102854
0.196674114664579
0.19667411423792
0.196674113822565
0.174974341332357
0.174974340938694
0.174974340555432
0.174974340182286
0.174974339818974
0.174974339465222
0.17497433912076
0.174974338785325
0.17497433845866
0.174974338140511
0.1522661137568
0.152266113454946
0.152266113160878
0.152266112874364
0.152266112595172
0.152266112323078
0.152266112057859
0.152266111799295
0.152266111547172
0.152266111301277
0.157828590430627
0.157828590196562
0.157828589968104
0.157828589745051
0.157828589527201
0.157828589314357
0.157828589106322
0.157828588902898
0.157828588703891
0.157828588509106
0.155305452537137
0.155305452350215
0.155305452166932
0.155305451987094
0.155305451810505
0.15530545163697
0.155305451466288
0.155305451298262
0.155305451132687
0.155305450969361
0.16527854724678
0.165278547087322
0.16527854692948
0.165278546773032
0.165278546617757
0.165278546463424
0.1652785463098
0.165278546156645
0.16527854600371
0.165278545850742
0.191743060870503
0.191743060716672
0.191743060561994
0.19174306040618
0.191743060248927
0.191743060089926
0.191743059928852
0.191743059765367
0.191743059599121
0.19174305942975
0.203130996112425
0.20313099593564
0.203130995754535
0.203130995568674
0.203130995377603
0.203130995180847
0.203130994977906
0.203130994768258
0.203130994551357
0.203130994326626
0.261471547374531
0.261471547132305
0.261471546880349
0.261471546617966
0.261471546344422
0.261471546058946
0.261471545760726
0.261471545448911
0.261471545122603
0.261471544780859
0.285263354292975
0.28526335391733
0.285263353523114
0.285263353109171
0.285263352674282
0.285263352217168
0.285263351736479
0.285263351230797
0.285263350698626
0.285263350138394
0.325849704013028
0.32584970339162
0.325849702736918
0.32584970204699
0.325849701319804
0.325849700553219
0.325849699744985
0.325849698892729
0.325849697993958
0.325849697046046
0.334745354765904
0.334745353711279
0.334745352598785
0.334745351425205
0.334745350187153
0.334745348881068
0.334745347503204
0.334745346049622
0.334745344516178
0.334745342898516
0.325489058861594
0.325489057061515
0.325489055162757
0.325489053159994
0.325489051047633
0.325489048819793
0.325489046470294
0.325489043992642
0.325489041380015
0.325489038625244
0.365011490770397
0.36501148770837
0.365011484480455
0.365011481077928
0.365011477491629
0.365011473711942
0.36501146972877
0.365011465531516
0.365011461109056
0.365011456449717
0.351237893217003
0.351237888046551
0.35123788260063
0.351237876865096
0.351237870825109
0.351237864465107
0.351237857768772
0.35123785071899
0.351237843297821
0.351237835486457
0.351892053803833
0.351892045151984
0.351892036047907
0.351892026468911
0.35189201639122
0.351892005789929
0.351891994638946
0.351891982910945
0.351891970577307
0.351891957608065
0.320343219649921
0.320343205313863
0.320343190243586
0.320343174403095
0.320343157754724
0.320343140259053
0.320343121874837
0.320343102558928
0.320343082266186
0.320343060949398
0.277107402649977
0.277107379134703
0.277107354440376
0.277107328510548
0.277107301286211
0.277107272705686
0.277107242704511
0.277107211215322
0.27710717816773
0.277107143488197
0.24792277953378
0.247922741356475
0.247922701306356
0.247922659295904
0.247922615233734
0.247922569024437
0.247922520568414
0.2479224697617
0.24792241649579
0.247922360657454
0.232100257527843
0.232100196185082
0.232100131899879
0.232100064538102
0.232099993959854
0.232099920019248
0.232099842564162
0.232099761436
0.232099676469426
0.232099587492104
0.209304573345674
0.209304475800456
0.20930437368267
0.209304266789117
0.20930415490812
0.20930403781919
0.209303915292693
0.209303787089493
0.20930365296059
0.209303512646745
0.177639446746607
0.177639293242241
0.177639132709816
0.177638964845103
0.177638789331553
0.17763860583983
0.177638414027337
0.17763821353773
0.177638004000401
0.177637785029962
0.163784416863089
0.163784177808394
0.163783928070205
0.163783667198395
0.163783394725161
0.163783110164385
0.163782813010983
0.163782502740221
0.163782178807021
0.163781840645237
0.158764261940225
0.158763893534834
0.158763509068476
0.15876310788307
0.158762689295512
0.158762252596813
0.158761797051202
0.15876132189521
0.158760826336722
0.158760309554003
0.157462702963057
0.157462141143136
0.157461555445864
0.157460944920681
0.157460308582083
0.157459645408461
0.157458954340907
0.157458234281989
0.157457484094485
0.157456702600091
0.191643311948714
0.19164246413457
0.191641581218575
0.191640661844364
0.191639704607432
0.191638708053613
0.191637670677501
0.191636590920846
0.191635467170895
0.191634297758696
0.198261346605012
0.198260080627887
0.198258763626786
0.198257393690056
0.198255968840666
0.19825448703422
0.198252946156931
0.19825134402354
0.198249678375183
0.198247946877206
0.223267895026437
0.223266024510856
0.2232640806643
0.223262060826029
0.223259962247766
0.223257782091185
0.223255517425331
0.223253165223983
0.223250722362957
0.223248185617348
0.251335821270388
0.251333086663853
0.251330247865179
0.251327301217739
0.251324242949449
0.251321069169623
0.251317775865762
0.251314358900277
0.251310814007149
0.251307136788507
0.304802067186138
0.304798111577977
0.304794009624414
0.304789756364644
0.304785346687884
0.304780775329536
0.30477603686727
0.304771125717037
0.304766036129004
0.304760762183425
0.317225482101239
0.317219820980516
0.317213956681002
0.317207882560409
0.317201591784718
0.317195077323589
0.317188331945696
0.317181348213982
0.317174118480841
0.31716663488322
0.337740579243024
0.33773256344057
0.337724268841706
0.337715686671116
0.337706807912421
0.337697623302823
0.337688123327686
0.337678298215034
0.33766813792998
0.337657632169079
0.355315299448136
0.355304070722334
0.355292463941497
0.355280467670084
0.35526807017471
0.355255259418091
0.355242023052907
0.35522834841562
0.355214222520209
0.35519963205186
0.356093653739145
0.356078092833368
0.3560620253734
0.356045436664925
0.356028311652391
0.356010634912368
0.355992390646855
0.355973562676542
0.355954134434029
0.355934088957006
0.356796675999654
0.356775343552715
0.356753340546129
0.356730648369042
0.356707247981089
0.356683119905399
0.356658244221579
0.356632600558684
0.356606168088178
0.356578925516886
0.34088433573448
0.340855407188306
0.340825601803528
0.340794896357977
0.340763267129667
0.340730689889798
0.340697139895789
0.340662591884342
0.340627020064532
0.340590398110948
0.317722962764164
0.317684159394822
0.317644223640654
0.317603126970684
0.317560840285947
0.317517333912992
0.317472577597461
0.317426540497772
0.317379191178885
0.317330497606177
0.293410068513037
0.293358587900512
0.293305663273213
0.293251260139218
0.293195343378177
0.293137877235956
0.29307882531943
0.29301815059145
0.292955815365962
0.292891781303325
0.27325630136087
0.273188751968326
0.27311938475412
0.273048158721214
0.272975032198512
0.272899962837419
0.272822907608647
0.272743822799265
0.272662664010015
0.272579386152889
0.215177022143539
0.215089368121219
0.214999455614527
0.214907236761954
0.214812663005494
0.214715685090036
0.214616253063089
0.214514316274854
0.214409823378647
0.214302722331694
0.206034941525729
0.20592246527083
0.205807220573943
0.205689152623521
0.205568205921727
0.205444324287629
0.205317450860834
0.205187528105571
0.205054497815222
0.204918301117328
0.168769847560869
0.168627138795013
0.168481083066397
0.168331618898877
0.168178684182809
0.168022216183053
0.167862151547512
0.167698426316205
0.167530975930906
0.167359735245327
0.13102538594055
0.130846366917706
0.130663358737888
0.130476294016012
0.130285104838607
0.130089722777548
0.129890078904407
0.12968610380543
0.129477727597152
0.129264879942638
0.158052626792209
0.157830623505692
0.157603935213568
0.157372489940547
0.157136215348929
0.156895038758819
0.156648887169015
0.156397687278585
0.156141365509126
0.155879848027716
0.170839347027378
0.17056721572414
0.170289665922995
0.170006623016357
0.169718012267324
0.169423758836818
0.16912378781143
0.168818024231967
0.168506393122704
0.168188819521329
0.184531192526951
0.184201509262023
0.183865659008518
0.183523567171234
0.183175159328571
0.182820361266635
0.182459099014012
0.182091298877226
0.181716887476851
0.181335791784293
0.202446077928454
0.202051396156858
0.20164981348978
0.201241258682634
0.200825661035157
0.200402950431969
0.199973057383719
0.199535913068815
0.199091449375728
0.198639598945847
0.221369350797956
0.220902528047852
0.220428121439242
0.219946067064375
0.219456301990528
0.218958764305883
0.218453393165848
0.217940128839797
0.217418912758221
0.216889687560264
0.231538830496523
0.230993420057674
0.23043983615246
0.22987802673693
0.229307941218478
0.228729530505226
0.228142747055631
0.227547544928288
0.226943879831913
0.226331709175464
0.280220325980231
0.27959102348279
0.278953098356462
0.278306515314366
0.277651241021687
0.276987244146083
0.276314495408018
0.275632967631018
0.274942635791794
0.274243477070212
0.280013426098971
0.27929655421359
0.278570800701063
0.277836152049303
0.277092597195718
0.276340127575533
0.275578737169719
0.274808422552482
0.274029182938289
0.273241020228378
0.303406518021675
0.302600525800429
0.301785632764615
0.300961852016296
0.300129199567988
0.299287694385344
0.29843735842908
0.297578216696082
0.296710297259671
0.295833631308982
0.31231217939438
0.3114181266371
0.310515440007517
0.309604163532745
0.308684344537975
0.307756033679736
0.306819284977995
0.305874155847083
0.30492070712537
0.303959003103696
0.297552926539688
0.296574918734743
0.295588869481632
0.294594857138697
0.293592963638607
0.292583274508425
0.291565878888167
0.290540869547813
0.289508342902734
0.288468399027508
0.289195098371871
0.288140634956102
0.287079076602475
0.286010538127206
0.284935138049517
0.283852998595141
0.282764245697992
0.28166900900001
0.280567421849117
0.279459621295295
0.257677106435193
0.25655730500251
0.255431723461005
0.254300513590932
0.253163830825782
0.252021834236542
0.250874686513924
0.249722553948551
0.248565606409079
0.247404017318243
0.257054618019137
0.25588428017784
0.254709842107054
0.25353149116452
0.252349418110873
0.251163817073073
0.249974885505712
0.248782824150204
0.247587836991843
0.246390131214756
0.185974060532557
0.184771551627772
0.18356696436741
0.182360518238189
0.181152435668807
0.179942941972315
0.17873226528644
0.177520636511862
0.176308289248464
0.175095459729593
0.152542640554646
0.15132956541809
0.150116731839786
0.148904385890159
0.147692775915122
0.146482152458817
0.145272768184555
0.14406487779397
0.142858737944433
0.141654607164764
0.106091659175021
0.104892329175999
0.103695794194499
0.10250231936973
0.101312171266916
0.100125617783748
0.0989429280554645
0.0977643723586348
0.0965902220136891
0.0954207492862685
0.0676309140162874
0.066471616601789
0.0653178182701372
0.0641697940599862
0.0630278194465835
0.0618921702374912
0.0607631224676427
0.0596409522938247
0.058525935888664
0.0574183493342266
0.0353653069612298
0.0342734074584895
0.0331897644414155
0.0321146525613818
0.0310483458448032
0.0299911175865429
0.0289432402436935
0.0279049853298587
0.0268766233100621
0.025858423496432
0.0163869301088897
0.0153898575164332
0.0144037471205795
0.013428862599244
0.0124654659726447
0.011513817506834
0.0105741756191389
0.00964679678570246
0.00873193545131734
0.00782984394176883
0.00916585730155689
0.00829005352125589
0.00742776299467052
0.00657922875279598
0.00574469131476874
0.0049243886200967
0.00411855596511063
0.00332742594392543
0.00255122839420718
0.00179019034806599
-0.022969041000549
-0.0236990903779431
-0.0244133163960742
-0.025111503621997
-0.0257934395851346
-0.0264589147883167
-0.027107722711112
-0.0277396598050259
-0.0283545254801136
-0.0289521220825509
0.00735850827274864
0.0067960312024381
0.00625139891979243
0.00572479775664048
0.00521641137403195
0.00472642084969471
0.00425500477829077
0.0038023393850844
0.00336859865365285
0.00295395446828506
0.0256795798590115
0.0253036368263314
0.0249472950553833
0.0246107197748969
0.0242940750707031
0.0239975241309467
0.0237212295110421
0.0234653534191607
0.0232300580230527
0.0230155057790177
0.0422298561445173
0.0420572805112742
0.0419059407696839
0.0417760042920836
0.0416676407457161
0.0415810225722547
0.0415163254954151
0.0414737290575092
0.041453417185792
0.0414555787894434
0.0579163658122893
0.057964064196434
0.0580348391216999
0.0581289060361794
0.0582464888427402
0.0583878206965559
0.058553144838607
0.0587427154657829
0.0589567986381653
0.0591956732240251
0.131583730160834
0.131873080365662
0.132188145462877
0.132529265772615
0.132896799727766
0.133291125052518
0.133712639980266
0.134161764510735
0.134638941706084
0.135144639025588
0.138162000088583
0.138726244523878
0.139320571757686
0.139945560935293
0.140601822828211
0.14129000138434
0.142010775309864
0.142764859681186
0.143553007585024
0.144376011784562
0.181736967750204
0.182632230007354
0.183564981911003
0.184536192027389
0.185546877232011
0.186598104475464
0.18769099255415
0.188826713881834
0.190006496257714
0.191231624626434
0.197855156854956
0.199175069342295
0.200544542903827
0.201965108328228
0.203438362048208
0.204965967739871
0.206549657873928
0.208191235211916
0.209892574240273
0.211655622534888
0.227710078111384
0.229602686375516
0.2315632976098
0.233594163728924
0.235697615239611
0.237876062018401
0.240131993961282
0.242467981496
0.244886675947701
0.247390809748466
0.234186293437921
0.236869827704634
0.239647484810235
0.242522320250993
0.245497468998811
0.248576144571239
0.25176163787771
0.255057315832478
0.25846661972487
0.261993063337717
0.254142489337164
0.257914032731914
0.261813669376693
0.265845178867637
0.270012399805168
0.274319226223833
0.278769603714633
0.283367525233645
0.288117026591325
0.293022181617552
0.280681986170982
0.285910795951743
0.291307655708264
0.296876736378126
0.302622217755491
0.308548281647405
0.314659104692732
0.320958850845465
0.327451663525244
0.33414165743903
0.314036087612407
0.321132630435839
0.328438439735536
0.335957427207827
0.343693430229223
0.351650201852332
0.359831400533588
0.368240579606513
0.376881176515547
0.385756501826901
0.367004686606896
0.376358836749877
0.385956772868597
0.395801184312036
0.405894575926128
0.416239256144723
0.426837325008993
0.43769066214205
0.448800914706646
0.460169485374886
0.426767029664187
0.43865540672612
0.450804723481045
0.463215285650385
0.475887095581028
0.488819840952083
0.502012883723029
0.515465249358996
0.529175616369263
0.543142306195396
0.5429944658498
0.557467289157626
0.572189162098413
0.587156885004987
0.602366857115526
0.617815069331355
0.633497097579979
0.649408096818608
0.665542795712491
0.681895492021537
0.668822184307017
0.6855920265144
0.702560139150341
0.719719065498674
0.737060906590279
0.754577321477265
0.772259528414095
0.790098306967455
0.808084001074463
0.826206523066615
0.81623959874711
0.834603813100069
0.853072057727221
0.871632578572791
0.890273225026694
0.908981459974365
0.92774437086473
0.946548681792988
0.965380766591688
0.984226662920577
1.01465571307352
1.033486077103
1.052286504203
1.0710418477162
1.0897367096998
1.10835546063875
1.12688226000584
1.145301077635
1.163595715871
1.18174983245589
1.2143952603005
1.23221884695233
1.24985225657058
1.2672788105471
1.28448180957884
1.30144455999398
1.31815040046506
1.33458272905059
1.35072503050432
1.36656090379018
1.39447986009841
1.40965426914203
1.42447400905778
1.43892341265804
1.45298706535619
1.46664983254174
1.47989688669621
1.49271373418185
1.50508624163514
1.51700066189765
1.54846924470694
1.55942792034461
1.5698898355188
1.57984303562809
1.58927607268681
1.59817802711481
1.60653852862247
1.61434777613513
1.62159655670267
1.62827626334316
1.66384242309116
1.6693606672891
1.67428781386821
1.67861783519404
1.68234538122931
1.68546579006572
1.68797509711487
1.68987004293263
1.69114807965533
1.6918073760298
1.71876188673272
1.71818109171235
1.71698039118901
1.71516084212231
1.71272422178963
1.70967302422488
1.70601045523706
1.70174042602254
1.69686754538902
1.69139711061292
1.72809280137642
1.72144585028829
1.71422125633422
1.70642695287545
1.69807149654831
1.68916405058214
1.67971436700229
1.66973276776667
1.65923012488742
1.64821783959135
1.6652794068421
1.65328404768221
1.6408162034559
1.62788916664047
1.61451664235041
1.60071272297885
1.58649186230911
1.57186884916293
1.55685878065307
1.54147703510802
1.52923618758011
1.5131582109463
1.4967561053165
1.48004609895421
1.46304456342321
1.44576798596745
1.42823294203207
1.41045606798926
1.39245403413117
1.37424351799021
1.36888198189312
1.35030443172227
1.33156821464659
1.3126897789315
1.29368545358528
1.27457142480667
1.25536371312593
1.23607815128172
1.21673036287346
1.19733574182587
1.18572234987403
1.16627922905272
1.14683388683545
1.12740061045794
1.1079933680651
1.08862579365341
1.06931117299831
1.05006243057953
1.03089211751355
1.01181240049963
0.988190601470848
0.969326989823979
0.950588072542399
0.931984388452022
0.913526051918725
0.895222747850619
0.87708372767996
0.859117806309744
0.841333360007379
0.823738325225847
0.782261988850038
0.765067826728544
0.748084248255553
0.73131743658908
0.7147731422668
0.698456687073523
0.682372968648128
0.666526465797652
0.650921244484901
0.635560964455236
0.611580368675104
0.596719362300672
0.582111914255
0.567760137224469
0.5536657791522
0.539830232945854
0.526254546570492
0.51293943348994
0.499885283420089
0.487092173358067
0.451617947255595
0.439345953877752
0.427333468871798
0.415579432933605
0.404082532097798
0.392841209696007
0.38185367835602
0.371117932011885
0.360631757895894
0.350392748484636
0.30820682123016
0.298454198904398
0.288940468398495
0.279662560799638
0.27061727058953
0.261801266797863
0.253211103949411
0.244843232787149
0.236694010754942
0.228759712224819
0.204853782419989
0.197337871231864
0.190025306393268
0.182912126700314
0.175994334747589
0.16926790538002
0.162728793820073
0.156372943465337
0.150196293352568
0.144194785285388
0.0952524534355653
0.0895890995471628
0.0840887959186085
0.0787475599307239
0.07356144229751
0.0685265321726082
0.0636389619266454
0.0588949115998425
0.0542906130348496
0.0498223536954547
0.0236088315583864
0.0194017527990016
0.015319942992957
0.0113599442217665
0.00751836880514101
0.00379190138262647
0.000177300734228336
-0.00332859865093726
-0.00672888524877796
-0.0100265694077333
-0.0248609697114241
-0.0279621633988909
-0.0309693093024817
-0.0338850986672324
-0.0367121423117837
-0.039452970733161
-0.0421100343770768
-0.0446857040641176
-0.0471822715623437
-0.0496019502969211
-0.0668155361535175
-0.0690877685707006
-0.0712892914017859
-0.0734220142183875
-0.0754877735365663
-0.0774883341616318
-0.0794253906096148
-0.0813005685976858
-0.0831154265960949
-0.0848714574344595
-0.0683792966766021
-0.0700218974307271
-0.0716097724051216
-0.0731441687813036
-0.0746262767153906
-0.0760572311356035
-0.0774381135518192
-0.0787699538722804
-0.0800537322228247
-0.0812903807642987
-0.0590347306234367
-0.0601797332172707
-0.06128013275784
-0.0623366875468337
-0.0633501168474335
-0.0643211026144376
-0.0652502911994542
-0.0661382950288332
-0.0669856942522118
-0.0677930383597706
-0.0510621402126623
-0.0517909078080963
-0.0524811004702644
-0.0531331605426086
-0.05374750727296
-0.0543245382137228
-0.0548646305825942
-0.0553681425832974
-0.0558354146859222
-0.0562667708666091
-0.0251252463395185
-0.0254856825824567
-0.0258110876526805
-0.0261017311310826
-0.0263578716914617
-0.0265797580966129
-0.02676763015473
-0.0269217196365831
-0.0270422511539908
-0.0271294430001692
-0.00864863113421988
-0.00866977722058659
-0.00865820844880133
-0.00861412550144358
-0.00853772639570038
-0.00842920710947653
-0.00828876217451474
-0.00811658523735714
-0.00791286958899862
-0.00767780866408607
0.0109192036138719
0.0112163718940176
0.0115442997315092
0.0119027887038748
0.012291638175488
0.0127106449629099
0.0131596030246449
0.013638303174473
0.0141465328175228
0.0146840757082712
0.0376584446346528
0.038253949597548
0.0388780950597227
0.0395306481636626
0.0402113714924067
0.0409200229427122
0.0416563556148342
0.0424201177182302
0.043211052492511
0.0440288981429896
0.0898678871327439
0.0907387487752343
0.0916357052652342
0.0925584742963451
0.0935067684028933
0.094480294970318
0.0954787562560752
0.0965018494205553
0.0975492665675088
0.0986206947935094
0.115770857786823
0.116889349730236
0.118030884619914
0.11919513018321
0.120381749507512
0.121590401134753
0.122820739162037
0.124072413348026
0.125345069224734
0.126638348214393
0.1224818963925
0.123815330048176
0.125168287662914
0.126540395478925
0.127931276278174
0.129340549523295
0.130767831501536
0.132212735471502
0.133674871812422
0.135153848175744
0.13825727557587
0.139768744797406
0.141295862174771
0.142838226002547
0.144395432632435
0.145967076634198
0.14755275095748
0.149152047094331
0.15076455524225
0.152389864467588
0.12815475198838
0.129804426861087
0.131465664859487
0.133138052161055
0.134821174629079
0.136514617975017
0.138217967920179
0.139930810356641
0.14165273150722
0.143383318084426
0.127646482048747
0.129393162363242
0.13114727275162
0.132908403449994
0.134676145959479
0.136450093196639
0.138229839642164
0.140014981487698
0.141805116780716
0.14359984556738
0.136700375344086
0.138503099952829
0.140309231582311
0.142118379658716
0.143930156288096
0.145744176385488
0.147560057801516
0.149377421446401
0.151195891411348
0.153015095087227
0.118248225544149
0.12006779259013
0.121886996463156
0.123705478884147
0.125522885425121
0.127338865610782
0.129153073017132
0.130965165367062
0.132774804622913
0.134581657075958
0.0879516350416739
0.0897519305075493
0.0915484648664589
0.0933409225582098
0.0951289927522689
0.0969123694184604
0.09869075139449
0.100463842450285
0.102231351349162
0.103992991905804
0.0909395644265549
0.0926886302190544
0.0944309999536686
0.0961664081667931
0.097894594688483
0.0996153046814486
0.101328288676928
0.103033302607445
0.104730107836488
0.106418471185108
0.0619211697077971
0.0635919717037509
0.0652536652483112
0.0669060391982703
0.0685488879558186
0.07018201147727
0.0718052152789145
0.0734183104400268
0.0750211136030796
0.0766134469711832
0.088816092016466
0.0903869746174497
0.0919468873304128
0.0934956745215236
0.0950331860647257
0.0965592773234512
0.0980738091298684
0.0995766477617069
0.10106766491672
0.102546737684822
0.100371724186979
0.101826560866752
0.103269116469942
0.104699289331848
0.1061169830076
0.107522106231461
0.108914572874171
0.110294301898399
0.111661217312355
0.11301524812161
0.104964207802555
0.10629227615737
0.107607276401009
0.108909157013004
0.110197871204566
0.111473376860899
0.112735636482117
0.113984617122833
0.115220290330486
0.11644263208245
0.125564877576494
0.126760501747605
0.127942748328856
0.129111610366203
0.130267085004899
0.131409173420525
0.13253788074921
0.133653216017089
0.134755192069057
0.135843825496876
0.187621770265891
0.188683782845159
0.189732524329181
0.190768025567111
0.191790320787619
0.19279944752421
0.193795446540269
0.194778361753861
0.195748240162357
0.196705131766915
0.229398492823704
0.230329572460949
0.231247832564251
0.232153334393682
0.23304614183511
0.233926321324832
0.234793941774385
0.235649074495572
0.236491793125752
0.237322173553431
0.25257613617518
0.253382076497935
0.254175919051707
0.25495774799274
0.255727649362142
0.25648571101404
0.257232022544272
0.257966675219667
0.258689761907922
0.259401377008127
0.287168759615121
0.287857720518672
0.288535501535128
0.28920220250805
0.289857924475506
0.290502769604965
0.291136841129012
0.291760243281897
0.292373081236938
0.292975461044795
0.313939743577447
0.31452152844902
0.315093177985656
0.315654801148203
0.316206507479915
0.31674840705031
0.317280610400001
0.317803228486519
0.318316372631137
0.318820154466696
0.359595840318163
0.36008123342567
0.360557600485665
0.361025053876015
0.361483706040698
0.361933669443828
0.36237505652473
0.362807979654065
0.36323255109101
0.36364888294149
0.369928944228813
0.370329132408617
0.370721415998352
0.371105906094326
0.371482713446548
0.371851948423256
0.372213720976494
0.372568140608716
0.372915316340431
0.373255356678861
0.368080927649635
0.368407020519435
0.368726300139763
0.369038872671583
0.369344843621015
0.369644317813987
0.369937399371865
0.370224191688037
0.370504797405444
0.370779318395057
0.375916397067968
0.376179051024924
0.376435921033719
0.376687105680525
0.376932702685578
0.377172808887034
0.377407520225686
0.377636931730512
0.377861137505062
0.378080230714649
0.37586276137864
0.376071905142066
0.37627621009093
0.376475765525352
0.376670659754912
0.376860980090434
0.377046812836487
0.377228243284577
0.377405355707027
0.377578233351529
0.346250020019524
0.346414673729334
0.346575336211695
0.34673208657412
0.34688500288175
0.347034162155597
0.34717964037136
0.347321512458781
0.347459852301542
0.347594732737677
0.324761517597339
0.324889693556791
0.32501462236141
0.325136372680606
0.325255012147462
0.325370607361949
0.325483223894552
0.325592926290306
0.325699778073214
0.325803841751044
0.284612688287308
0.284711359239452
0.284807423565661
0.2849009397637
0.284991965344204
0.285080556837431
0.285166769800302
0.285250658823704
0.285332277540052
0.285411678631095
0.25856466039289
0.258639780516308
0.258712835437132
0.258783874116967
0.258852944609025
0.258920094067156
0.258985368755036
0.259048814055509
0.259110474480079
0.259170393678528
0.244940197785939
0.244996762083456
0.245051711031896
0.245105084932713
0.245156923275415
0.245207264747796
0.245256147246223
0.245303607885996
0.245349683011756
0.245394408207938
0.213557567683317
0.213599696785316
0.213640578254869
0.213680244740773
0.213718728184306
0.213756059829804
0.213792270235229
0.213827389282729
0.213861446189182
0.213894469516719
0.20714417585789
0.207175215147448
0.207205302720795
0.207234464625689
0.207262726307248
0.207290112618241
0.207316647829314
0.207342355639166
0.207367259184651
0.207391381050823
0.203049433874851
0.203072057980105
0.203093964949691
0.203115175260367
0.203135708886155
0.203155585307899
0.203174823522739
0.203193442053499
0.203211458957969
0.203228891838101
0.202321062254313
0.202337378113635
0.202353160109869
0.202368424111531
0.202383185575745
0.202397459556816
0.2024112607147
0.202424603323359
0.202437501279013
0.202449968108275
0.224385364577064
0.224397008294971
0.224408259328381
0.224419129804608
0.22442963152036
0.224439775949193
0.224449574248858
0.224459037268528
0.224468175555913
0.224476999364262
0.242595063439904
0.242603287906387
0.242611226955087
0.242618889729115
0.242626285110409
0.242633421726047
0.242640307954458
0.242646951931509
0.242653361556489
0.242659544497985
0.256497819099349
0.256503570785506
0.256509117466773
0.256514465945446
0.256519622820844
0.256524594494533
0.25652938717545
0.25653400688492
0.256538459461572
0.256542750566153
0.308608719462029
0.308612703916651
0.308616542860797
0.308620241289845
0.308623804043879
0.308627235811928
0.308630541136098
0.308633724415619
0.308636789910802
0.308639741746905
0.322499752477733
0.322502488850033
0.322505123166046
0.322507659047735
0.322510100000042
0.322512449414251
0.322514710571262
0.322516886644791
0.322518980704492
0.322520995719
0.336556932557359
0.336558797998091
0.336560592722762
0.336562319324906
0.336563980311167
0.336565578103914
0.336567115043791
0.336568593392196
0.336570015333701
0.336571382978409
0.385502437747453
0.385503702842389
0.385504919546632
0.385506089694727
0.385507215057619
0.38550829734465
0.385509338205512
0.385510339232136
0.385511301960535
0.385512227872594
0.385481949746568
0.385482806263738
0.385483630102607
0.385484422545463
0.385485184828684
0.385485918144251
0.385486623641206
0.385487302427072
0.385487955569235
0.385488584096281
0.413819217317927
0.413819799551747
0.413820360036199
0.413820899657273
0.413821419268279
0.413821919690957
0.413822401716565
0.41382286610692
0.413823313595423
0.413823744888035
0.378761497892993
0.378761898806711
0.378762285487206
0.378762658539947
0.378763018547448
0.378763366070083
0.378763701646873
0.378764025796247
0.37876433901678
0.378764641787906
0.35987873588118
0.359879019118672
0.359879293237019
0.359879558645778
0.359879815738604
0.359880064893826
0.359880306475019
0.359880540831544
0.359880768299079
0.359880989200128
0.349491162644479
0.349491371329812
0.349491574341963
0.349491771955496
0.3494919644341
0.349492152031003
0.349492334989369
0.349492513542687
0.349492687915138
0.349492858321959
0.322905006947138
0.322905170034335
0.322905329751328
0.322905486280904
0.322905639798518
0.322905790472577
0.322905938464719
0.322906083930083
0.322906227017566
0.322906367870073
0.298957890401717
0.298958027190202
0.29895816213882
0.298958295368818
0.298958426996561
0.298958557133737
0.298958685887542
0.29895881336087
0.298958939652488
0.298959064857204
0.276000000401818
0.276000123702143
0.27600024617786
0.27600036790953
0.276000488974516
0.276000609447119
0.276000729398708
0.276000848897843
0.276000968010399
0.276001086799677
0.249429253930893
0.249429372253777
0.249429490428935
0.249429608510445
0.249429726550321
0.249429844598607
0.249429962703464
0.249430080911254
0.249430199266617
0.249430317812552
0.208586250808274
0.208586369858142
0.208586489218441
0.208586608926307
0.208586729017571
0.208586849526824
0.208586970487469
0.20858709193178
0.208587213890953
0.20858733639516
0.202164598751034
0.202164722431952
0.202164846742731
0.2021649717099
0.202165097359187
0.202165223715556
0.202165350803244
0.202165478645799
0.202165607266114
0.202165736686457
0.191527309097508
0.191527440182387
0.191527572130682
0.191527704962476
0.191527838697377
0.191527973354539
0.191528108952693
0.191528245510162
0.191528383044892
0.191528521574465
0.213550040263851
0.213550180834524
0.213550322450831
0.213550465129114
0.213550608885444
0.213550753735647
0.213550899695311
0.213551046779807
0.213551195004301
0.213551344383768
0.229970450585265
0.229970602318903
0.22997075525142
0.229970909397152
0.229971064770306
0.229971221384966
0.229971379255108
0.229971538394604
0.229971698817238
0.22997186053671
0.245153524768482
0.24515368912244
0.245153854813921
0.245154021856375
0.245154190263208
0.245154360047787
0.245154531223449
0.245154703803507
0.245154877801254
0.24515505322997
0.253019711964866
0.253019890295336
0.253020070096588
0.253020251381904
0.253020434164574
0.253020618457905
0.253020804275224
0.253020991629883
0.253021180535263
0.253021371004774
0.297369875256058
0.297370068894213
0.29737026413696
0.297370460997874
0.297370659490575
0.297370859628737
0.297371061426086
0.297371264896406
0.297371470053539
0.297371676911391
0.339891796767254
0.339892007068514
0.339892219112601
0.339892432913688
0.339892648486024
0.339892865843933
0.339893085001813
0.339893305974145
0.339893528775487
0.339893753420483
0.359204470868359
0.359204699244926
0.359204929509585
0.359205161677325
0.359205395763226
0.359205631782459
0.35920586975029
0.35920610968208
0.359206351593286
0.359206595499463
0.379634632123064
0.379634880066244
0.37963513005166
0.379635382095271
0.379635636213139
0.379635892421433
0.379636150736429
0.37963641117451
0.379636673752167
0.379636938486002
0.395979051906119
0.395979321002562
0.395979592305658
0.395979865832462
0.395980141600141
0.39598041962598
0.39598069992738
0.395980982521862
0.395981267427067
0.395981554660753
0.412525783546311
0.41252607549073
0.412526369817645
0.41252666654531
0.4125269656921
0.412527267276521
0.412527571317203
0.412527877832907
0.412528186842521
0.412528498365065
0.397180863164194
0.39718117977018
0.397181498946944
0.397181820714035
0.397182145091138
0.397182472098073
0.397182801754797
0.397183134081405
0.39718346909813
0.397183806825347
0.365881631346532
0.365881974556415
0.365882320538755
0.365882669314495
0.365883020904721
0.365883375330664
0.365883732613701
0.365884092775357
0.365884455837306
0.365884821821368
0.340693388022461
0.34069375991682
0.340694134799664
0.340694512693421
0.340694893620675
0.340695277604162
0.340695664666777
0.34069605483157
0.340696448121749
0.340696844560682
0.328088852108925
0.328089254916108
0.32808966094311
0.328090070213946
0.328090482752791
0.328090898583989
0.328091317732046
0.328091740221639
0.328092166077611
0.328092595324974
0.309662410181548
0.309662846287412
0.309663285860728
0.309663728927197
0.309664175512692
0.309664625643261
0.30966507934513
0.309665536644702
0.309665997568558
0.309666462143461
0.274143167292608
0.274143639250609
0.274144114941029
0.274144594391358
0.274145077629272
0.274145564682634
0.274146055579494
0.27414655034809
0.274147049016849
0.274147551614392
0.241874049739424
0.241874560281157
0.241875074838685
0.241875593441403
0.241876116118899
0.241876642900962
0.241877173817578
0.241877708898934
0.241878248175417
0.241878791677619
0.209358509861271
0.209359061907497
0.209359618272438
0.209360178987508
0.209360744084327
0.209361313594725
0.209361887550744
0.209362465984637
0.209363048928871
0.209363636416128
0.21104957479406
0.211050171466272
0.211050772780851
0.211051378771351
0.211051989471546
0.211052604915431
0.211053225137227
0.211053850171377
0.211054480052553
0.211055114815652
0.193801891907555
0.193802536540112
0.193803186160666
0.193803840805037
0.193804500509282
0.19380516530969
0.193805835242789
0.193806510345346
0.193807190654365
0.193807876207093
0.195310130286464
0.19531082643932
0.195311527949083
0.195312234853976
0.195312947192473
0.195313665003292
0.195314388325407
0.195315117198041
0.195315851660671
0.19531659175303
0.218217663258943
0.218218414730982
0.21821917195349
0.218219934967235
0.218220703813245
0.218221478532814
0.218222259167497
0.218223045759122
0.218223838349779
0.218224636981833
0.23441869306429
0.234419503907309
0.234420320920446
0.234421144147156
0.234421973631174
0.234422809416512
0.234423651547464
0.234424500068604
0.234425355024793
0.234426216461173
0.26643390589917
0.266434780432514
0.266435661583207
0.266436549397551
0.266437443922138
0.266438345203858
0.266439253289893
0.266440168227727
0.266441090065142
0.266442018850221
0.312609398344143
0.312610341170012
0.312611291089619
0.312612248152268
0.312613212407574
0.312614183905462
0.312615162696171
0.312616148830254
0.31261714235858
0.312618143332337
0.322656803279981
0.322657819299444
0.322658842919826
0.322659874193605
0.322660913173585
0.322661959912897
0.322663014465005
0.322664076883703
0.32266514722312
0.32266622553772
0.344076416346141
0.344077510775852
0.34407861334617
0.344079724112921
0.344080843132274
0.344081970460744
0.344083106155197
0.344084250272846
0.34408540287126
0.344086564008357
0.373124666726598
0.37312584511625
0.37312703222049
0.373128228098675
0.373129432810521
0.373130646416113
0.373131868975902
0.373133100550709
0.373134341201724
0.373135590990511
0.396530040691316
0.396531308941845
0.396532586517096
0.396533873480148
0.396535169894457
0.396536475823869
0.396537791332613
0.396539116485309
0.396540451346968
0.396541795982992
0.419421355351696
0.419422719734241
0.419424094089739
0.419425478485185
0.419426872987976
0.419428277665916
0.419429692587216
0.419431117820495
0.419432553434785
0.419433999499531
0.401932060133825
0.401933527309482
0.401935005146433
0.401936493715797
0.401937993089119
0.40193950333837
0.401941024535949
0.401942556754686
0.401944100067844
0.401945654549121
0.38043454631931
0.380436123359669
0.380437711791871
0.380439311691378
0.380440923134095
0.380442546196375
0.380444180955025
0.380445827487301
0.380447485870915
0.380449156184039
0.363564520486705
0.363566214895196
0.363567921470473
0.363569640292556
0.363571371441938
0.363573114999578
0.363574871046913
0.363576639665854
0.363578420938789
0.363580214948588
0.339158310529992
0.33916013026406
0.339161962986506
0.339163808782146
0.339165667736286
0.339167539934727
0.339169425463769
0.339171324410211
0.339173236861352
0.339175162904998
0.304834232873909
0.304836186368007
0.304838153721076
0.30484013502296
0.304842130364025
0.304844139835153
0.304846163527748
0.304848201533738
0.30485025394558
0.304852320856257
0.260269387464241
0.260271483653671
0.260273594624091
0.260275720470627
0.260277861288947
0.260280017175265
0.260282188226341
0.260284374539484
0.260286576212556
0.260288793343975
0.258225836755593
0.258228085101188
0.258230349203736
0.258232629163898
0.258234925082907
0.258237237062562
0.258239565205239
0.258241909613888
0.258244270392038
0.258246647643801
0.207817193168147
0.207819603681805
0.207822030984923
0.207824475183964
0.207826936385986
0.207829414698646
0.207831910230199
0.207834423089505
0.20783695338603
0.207839501229848
0.204010961321426
0.204013544592503
0.204016145744777
0.204018764890785
0.204021402143687
0.204024057617269
0.204026731425945
0.20402942368476
0.204032134509394
0.204034864016163
0.186016850212395
0.186019617434947
0.186022403692434
0.18602520910375
0.18602803378844
0.186030877866701
0.186033741459391
0.186036624688026
0.186039527674785
0.186042450542514
0.20837617689655
0.208379139897434
0.208382123151851
0.208385126785339
0.20838815092412
0.208391195695097
0.208394261225862
0.208397347644695
0.208400455080572
0.208403583663161
0.217015593594603
0.217018764862428
0.217021957670181
0.217025172150348
0.217028408436124
0.21703166666142
0.217034946960863
0.2170382494698
0.217041574324304
0.217044921661172
0.238346890012496
0.238350282727411
0.238353698339477
0.238357136988431
0.238360598814751
0.238364083959663
0.238367592565139
0.238371124773904
0.238374680729439
0.238378260575983
0.279630853762813
0.279634481827139
0.279638134219771
0.279641811088013
0.279645512579944
0.279649238844418
0.279652990031074
0.279656766290332
0.279660567773401
0.279664394632279
0.290108885855616
0.290112763925289
0.290116667831546
0.290120597729581
0.290124553775396
0.290128536125803
0.290132544938428
0.290136580371715
0.290140642584926
0.290144731738151
0.349402117257015
0.349406260773839
0.349410431715915
0.349414630246659
0.349418856530329
0.349423110732025
0.349427393017697
0.349431703554144
0.34943604250902
0.349440410050837
0.367807966298843
0.367812391523525
0.367816845845863
0.367821329437835
0.367825842472293
0.367830385122967
0.36783495756447
0.367839559972299
0.367844192522841
0.367848855393376
0.38187972067451
0.381884444720454
0.381889199623616
0.381893985564881
0.381898802726041
0.381903651289806
0.381908531439797
0.381913443360561
0.381918387237566
0.381923363257209
0.388610968436055
0.388616009303892
0.38862108287916
0.388626189352001
0.388631328913504
0.388636501755708
0.388641708071603
0.388646948055138
0.388652221901219
0.388657529805718
0.40862670121114
0.408632077823962
0.408637489088635
0.408642935204921
0.408648416373565
0.408653932796296
0.408659484675835
0.408665072215894
0.408670695621182
0.408676355097407
0.398100768825433
0.398106501064683
0.398112269998039
0.398118075835247
0.398123918787074
0.398129799065311
0.398135716882771
0.398141672453301
0.39814766599178
0.398153697714124
0.378699097671896
0.37870520641389
0.378711353993763
0.378717540631619
0.378723766548619
0.378730031966983
0.378736337109995
0.378742682202009
0.378749067468448
0.378755493135811
0.3732854980895
0.373292005242527
0.373298553482465
0.373305143040151
0.373311774147517
0.373318447037593
0.373325161944512
0.373331919103511
0.373338718750938
0.373345561124253
0.341174118845756
0.341181047387704
0.341188019374642
0.341195035048523
0.341202094652432
0.341209198430591
0.341216346628364
0.341223539492255
0.34123077726992
0.341238060210166
0.294938244412277
0.294945618428732
0.294953038361138
0.294960504462949
0.29496801698879
0.294975576194461
0.294983182336941
0.294990835674392
0.294998536466164
0.295006284972797
0.282439293961392
0.282447138684151
0.282455031910576
0.28246297390601
0.282470964937006
0.282479005271333
0.282487095177976
0.282495234927142
0.282503424790268
0.282511665040017
0.236895314226747
0.236903656072675
0.236912049130639
0.236920493678263
0.23692898999442
0.236937538359238
0.236946139054103
0.236954792361659
0.23696349856582
0.236972257951767
0.201970667507697
0.201979534117857
0.201988454773003
0.201997429763434
0.202006459380736
0.202015543917791
0.202024683668777
0.202033878929173
0.202043129995761
0.202052437166636
0.200509650771727
0.200519071050706
0.200528548336141
0.2005380829314
0.200547675141179
0.200557325271507
0.200567033629749
0.20057680052461
0.200586626266142
0.200596511165742
0.203031363358162
0.203041367513507
0.203051431769245
0.203061556442208
0.203071741850595
0.203081988313976
0.203092296153301
0.203102665690894
0.203113097250468
0.20312359115712
0.204025882749236
0.204036502330912
0.204047185243329
0.204057931817175
0.204068742384545
0.204079617278948
0.204090556835306
0.204101561389959
0.204112631280674
0.204123766846641
0.210514037370984
0.210525305310758
0.210536639951959
0.210548041639524
0.21055951071984
0.21057104754074
0.210582652451514
0.210594325802907
0.21060606794713
0.210617879237856
0.224570019708171
0.224581970358811
0.224593991225812
0.224606082668749
0.224618245048686
0.224630478728171
0.224642784071248
0.224655161443456
0.224667611211836
0.224680133744932
0.274206414068365
0.274219083242562
0.274231826296171
0.274244643603791
0.274257535541546
0.274270502487085
0.274283544819588
0.274296662919771
0.274309857169887
0.274323127953732
0.296798335506293
0.29681176051517
0.296825263218453
0.296838844006144
0.296852503269806
0.296866241402565
0.296880058799118
0.296893955855732
0.29690793297025
0.296921990542094
0.327733617918961
0.327747837610062
0.327762138966271
0.327776522393364
0.327790988298716
0.327805537091304
0.327820169181707
0.327834884982115
0.32784968490633
0.32786456936977
0.342542994308688
0.342558049103311
0.342573189693143
0.342588416500099
0.34260372994773
0.342619130461224
0.342634618467408
0.342650194394757
0.342665858673389
0.342681611735077
0.390942154019871
0.390958085949608
0.390974107967658
0.390990220512433
0.391006424024013
0.391022718944151
0.391039105716274
0.391055584785489
0.391072156598584
0.391088821604036
0.392843364582214
0.392860217324559
0.392877164614832
0.392894206908282
0.392911344661863
0.392928578334234
0.392945908385762
0.392963335278529
0.392980859476329
0.392998481444677
0.412974871514955
0.412992690427834
0.413010608518148
0.413028626258321
0.413046744122508
0.413064962586604
0.413083282128244
0.413101703226809
0.413120226363425
0.41313885202097
0.385537754841559
0.385556586996613
0.385575523131763
0.385594563736918
0.385613709303756
0.385632960325719
0.385652317298025
0.385671780717665
0.385691351083407
0.3857110288958
0.390065999586953
0.390085893801433
0.390105896974923
0.390126009615125
0.390146232231533
0.390166565335441
0.390187009439942
0.390207565059932
0.390228232712116
0.390249012915004
0.35008626164693
0.350107268514013
0.350128389498218
0.350149625125317
0.35017097592291
0.350192442420416
0.350214025149086
0.350235724641999
0.350257541434067
0.350279476062037
0.311425960160722
0.311448132078093
0.311470423452645
0.311492834828492
0.311515366751595
0.311538019769764
0.311560794432664
0.311583691291812
0.311606710900584
0.311629853814216
0.297955832251965
0.29797922344847
0.298002739626718
0.298026381349406
0.298050149181099
0.298074043688238
0.298098065439137
0.298122215003987
0.298146492954859
0.298170899865706
0.267180852890316
0.267205519450504
0.267230316703833
0.2672552452318
0.267280305617795
0.267305498447101
0.267330824306895
0.267356283786254
0.267381877476151
0.267407605969461
0.246624178393024
0.246650178279397
0.24667631475923
0.246702588433019
0.246728999903169
0.246755549773996
0.246782238651729
0.246809067144511
0.246836035862401
0.246863145417376
0.221454583775094
0.221481976847844
0.221509512605128
0.221537191666606
0.221565014653863
0.221592982190412
0.221621094901691
0.221649353415067
0.221677758359838
0.221706310367232
0.217269405430325
0.217298253464381
0.217327250466345
0.21735639707518
0.217385693931789
0.21741514167901
0.217444740961621
0.217474492426341
0.217504396721828
0.217534454498683
0.201592428947287
0.201622795646448
0.201653317790437
0.201683996037629
0.201714831048344
0.20174582348485
0.201776974011363
0.201808283294044
0.201839752001004
0.201871380802302
0.204545520893043
0.204577471900995
0.204609585025162
0.204641860943404
0.204674300335532
0.204706903883309
0.204739672270448
0.204772606182617
0.204805706307432
0.204838973334467
0.201700213116831
0.201733816024826
0.201767587915469
0.201801529486142
0.201835641436179
0.201869924466869
0.201904379281451
0.20193900658512
0.20197380708502
0.20200878149025
0.236493013670516
0.236528338021506
0.236563838416829
0.236599515573391
0.236635370210046
0.236671403047598
0.236707614808803
0.236744006218365
0.236780578002937
0.236817330891118
0.270706367306297
0.270743484595289
0.270780785185375
0.27081826981294
0.270855939216315
0.270893794135773
0.270931835313532
0.270970063493748
0.27100847942252
0.271047083847886
0.303947579744574
0.303986563414996
0.304025737837752
0.304065103768628
0.304104661965342
0.304144413187545
0.304184358196819
0.304224497756676
0.304264832632555
0.304305363591822
0.317246094421394
0.317287019857235
0.317328143690106
0.317369466695065
0.317410989649086
0.31745271333106
0.317494638521795
0.317536766004009
0.317579096562332
0.317621630983304
0.371411636840662
0.371454581354173
0.371497732101382
0.371541089876443
0.371584655475409
0.371628429696227
0.37167241333874
0.37171660720468
0.37176101209767
0.371805628823218
0.391619000729327
0.391664043544047
0.391709300619143
0.391754772767641
0.391800460804444
0.39184636554632
0.391892487811911
0.391938828421718
0.391985388198107
0.3920321679653
0.386161983766879
0.386209205995772
0.386256650699261
0.386304318708973
0.386352210858377
0.386400327982782
0.386448670919332
0.386497240507005
0.386546037586606
0.386595063000769
0.382930858936629
0.382980343555093
0.38303005904693
0.383080006262036
0.383130186052115
0.383180599270675
0.383231246773021
0.383282129416253
0.383333248059264
0.383384603562731
0.402376128729597
0.402427960543138
0.40248003180985
0.402532343397514
0.40258489617568
0.402637691015656
0.402690728790508
0.402744010375052
0.402797536645851
0.402851308481213
0.383809951615145
0.383864217221494
0.383918731037728
0.383973493949075
0.384028506842477
0.384083770606594
0.384139286131788
0.384195054310127
0.384251076035375
0.384307352202988
0.361670368285885
0.361727156031332
0.361784200915607
0.361841503840876
0.361899065710973
0.361956887431386
0.362014969909261
0.362073314053385
0.362131920774191
0.362190790983744
0.321211168518969
0.321270568448722
0.321330234613169
0.321390167930853
0.321450369321924
0.321510839708129
0.321571580012805
0.321632591160876
0.321693874078843
0.321755429694779
0.326187627181276
0.326249730983624
0.326312110277525
0.326374765997271
0.326437699078693
0.326500910459152
0.326564401077534
0.32662817187424
0.32669222379118
0.326756557771768
0.266460950968507
0.2665258519126
0.266591037759516
0.266656509458603
0.266722267960672
0.266788314217991
0.266854649184277
0.266921273814689
0.266988189065818
0.267055395895683
0.247434954851014
0.247502747718062
0.24757083504637
0.247639217799574
0.247707896942699
0.247776873442142
0.24784614826567
0.247915722382409
0.247985596762836
0.248055772378768
0.21598209647707
0.216052877484791
0.216123962651436
0.216195352954102
0.216267049371186
0.216339052882369
0.216411364468616
0.216483985112159
0.216556915796492
0.21663015750636
0.188015471366702
0.188089338086831
0.188163518794142
0.188238014478289
0.188312826130131
0.188387954741718
0.188463401306286
0.188539166818242
0.188615252273159
0.188691658667762
0.200260287057801
0.200337338326513
0.200414713531906
0.200492413675214
0.200570439758776
0.20064879278602
0.200727473761456
0.200806483690662
0.200885823580277
0.200965494437987
0.216763258372925
0.216843594194021
0.216924264012448
0.217005268839975
0.217086609689364
0.217168287574356
0.217250303509663
0.217332658510956
0.217415353594853
0.217498389778906
0.21814723441222
0.218230955852926
0.218315021451941
0.218399432230441
0.218484189210478
0.218569293414968
0.218654745867679
0.218740547593219
0.218826699617021
0.218913202965335
0.243893217920857
0.243980427000142
0.244067990487451
0.244155909412169
0.244244184804429
0.244332817695107
0.244421809115802
0.244511160098828
0.244600871677197
0.244690944884608
0.275635150196262
0.275725949765538
0.275817114068941
0.275908644142787
0.276000541024007
0.27609280575014
0.276185439359318
0.276278442890251
0.276371817382213
0.27646556387503
0.318658045124745
0.318752538740881
0.318847407480512
0.318942652385526
0.319038274498291
0.319134274861639
0.319230654518854
0.319327414513656
0.319424555890189
0.319522079693
0.344814388388329
0.3449126801789
0.345011357531692
0.345110421492732
0.345209873108382
0.345309713425319
0.345409943490523
0.34551056435126
0.345611577055066
0.345712982649734
0.377219257934703
0.377321452455415
0.377424043011742
0.377527030652342
0.377630416426047
0.377734201381854
0.3778383865689
0.377942973036455
0.378047961833898
0.378153354010705
0.399742471986281
0.399848674070547
0.399955282683016
0.400062298873384
0.40016972369136
0.400277558186649
0.400385803408935
0.400494460407866
0.400603530233036
0.400713013933966
0.402679138656842
0.402789453257486
0.402900184881855
0.403011334579013
0.403122903397867
0.403234892387146
0.403347302595388
0.40346013507092
0.403573390861839
0.403687071015996
0.429391677758817
0.429506209781929
0.429621169310174
0.429736557390237
0.429852375068467
0.429968623390855
0.430085303403021
0.430202416150191
0.430319962677182
0.430437944028379
0.416905388564874
0.417024242695832
0.417143534781392
0.417263265864034
0.417383436985715
0.41750404918785
0.417625103511291
0.417746600996307
0.417868542682571
0.417990929609131
0.380605599857814
0.38072888037954
0.380852609254797
0.380976787519961
0.381101416210686
0.381226496361893
0.381352029007741
0.381478015181612
0.38160445591609
0.381731352242943
0.384087192287839
0.384215002891364
0.38434327217745
0.384472001174386
0.384601190909544
0.384730842409353
0.384860956699281
0.384991534803815
0.385122577746438
0.385254086549609
0.336105159716907
0.336237603304354
0.336370515813377
0.336503898262128
0.336637751667633
0.336772077045766
0.336906875411229
0.337042147777531
0.337177895156966
0.33731411856059
0.330407645111999
0.330544823592119
0.330682481121962
0.330820618707422
0.330959237353046
0.331098338062014
0.331237921836115
0.331377989675727
0.331518542579793
0.3316595815458
0.291116457074781
0.291258471151192
0.291400974273042
0.291543967431765
0.29168745161723
0.291831427817711
0.291975897019869
0.292120860208727
0.292266318367648
0.292412272478311
0.264787643317674
0.264934592270012
0.265082040108798
0.265229987808749
0.265378436342781
0.265527386681985
0.26567683979561
0.265826796651033
0.265977258213738
0.266128225447293
0.247493989695933
0.247645971154105
0.247798461162093
0.247951460675559
0.248104970648131
0.248258992031377
0.24841352577478
0.248568572825716
0.248724134129429
0.248880210629005
0.239189321598343
0.239346431310161
0.239504059033922
0.239662205703845
0.239820872251867
0.239980059607626
0.240139768698429
0.240300000449232
0.240460755782614
0.240622035618751
0.221238741167374
0.221401072759817
0.221563931600881
0.221727318600884
0.22189123466762
0.222055680706325
0.222220657619661
0.222386166307687
0.222552207667834
0.222718782594878
0.223356435577753
0.223524080312181
0.223692261281661
0.223860979370101
0.224030235458628
0.224200030425562
0.224370365146391
0.224541240493743
0.224712657337362
0.224884616544083
0.260634350154922
0.26080739667658
0.260980988144124
0.261155125412486
0.26132980933356
0.261505040756172
0.261680820526058
0.261857149485833
0.262034028474965
0.262211458329754
0.278037374192385
0.278215908274562
0.278394995711994
0.278574637328029
0.278754833942708
0.278935586372745
0.279116895431493
0.279298761928922
0.279481186671591
0.279664170462622
0.281695071297043
0.281879175580277
0.282063841300342
0.28224906924634
0.282434860203801
0.282621214954655
0.282808134277207
0.282995618946106
0.283183669732324
0.283372287403123
0.332711380993691
0.332901134720472
0.333091457611103
0.333282350417743
0.333473813888707
0.33366584876844
0.333858455797487
0.334051635712467
0.334245389246044
0.334439717126904
0.363757745258885
0.363953224004299
0.364149279258885
0.364345911735126
0.364543122141389
0.364740911181891
0.364939279556676
0.365138227961586
0.365337757088233
0.365537867623971
0.385066156703988
0.385267432102801
0.385469290946945
0.385671733906465
0.385874761647011
0.386078374829806
0.386282574111623
0.386487360144754
0.38669273357698
0.38689869505155
0.412307095311035
0.412514234781744
0.412721964197037
0.412930284181734
0.41313919535598
0.413348698335215
0.413558793730144
0.413769482146715
0.413980764186083
0.41419264044459
0.441660266421276
0.44187333288767
0.442086995333038
0.44230125433417
0.442516110462898
0.442731564286069
0.442947616365515
0.443164267258025
0.443381517515317
0.443599367684012
0.462947774167237
0.46316682577806
0.463386478909268
0.463606734086804
0.46382759183137
0.464049052658398
0.464271117078026
0.464493785595066
0.464717058708975
0.464940936913833
0.449124705210212
0.449349795057531
0.44957549144546
0.449801794846269
0.450028705726704
0.450256224547962
0.450484351765661
0.450713087829811
0.450942433184787
0.451172388269299
0.420052368239684
0.420283544076608
0.420515330924939
0.420747729200451
0.420980739313115
0.421214361667068
0.421448596660587
0.42168344468606
0.421918906129958
0.422154981372806
0.403674378240536
0.403911682198941
0.404149601061922
0.404388135185944
0.404627284921386
0.404867050612514
0.405107432597452
0.405348431208156
0.405590046770384
0.405832279603669
0.376986698815
0.377230167123959
0.377474253624945
0.377718958612312
0.377964282374049
0.378210225191756
0.378456787340609
0.37870396908934
0.378951770700203
0.379200192428951
0.351767719699187
0.352017382404814
0.352267665956292
0.352518570583085
0.352770096508019
0.35302224394725
0.35327501311024
0.353528404199728
0.353782417411702
0.354037052935374
0.321042611477414
0.321298492164867
0.321554995690713
0.32181212221678
0.322069871897985
0.322328244882301
0.322587241310737
0.322846861317305
0.323107105028996
0.323367972565753
0.290794494084967
0.291056609603358
0.291319349264086
0.291582713158633
0.291846701371297
0.29211131397917
0.292376551052107
0.292642412652702
0.292908898836259
0.293176009650772
0.274969418371682
0.275237778562685
0.275506763484464
0.275776373155488
0.276046607586782
0.276317466781896
0.276588950736886
0.276861059440282
0.277133792873064
0.277407151008637
0.259639900155983
0.259914507586925
0.260189739595165
0.260465596123549
0.26074207710722
0.261019182473592
0.261296912142324
0.261575266025297
0.261854244026585
0.262133846042433
0.275961040155117
0.276241889857375
0.276523363215698
0.27680546009476
0.277088180351281
0.277371523834001
0.277655490383657
0.277940079832956
0.278225292006554
0.278511126721026
0.276655685834832
0.276942765048354
0.277230466203773
0.277518789085115
0.277807733468205
0.278097299120646
0.278387485801797
0.278678293262745
0.278969721246284
0.279261769486892
0.295104334849247
0.295397622774036
0.295691530109187
0.295986056555675
0.29628120180604
0.296576965544368
0.296873347446262
0.297170347178824
0.297467964400633
0.297766198761716
0.310669235637523
0.310968703192939
0.311268786786205
0.311569486032933
0.311870800540077
0.312172729905908
0.312475273719994
0.312778431563177
0.313082203007553
0.313386587616446
0.339625289484716
0.339930899077439
0.340237120471828
0.340543953195919
0.340851396768872
0.341159450700949
0.341468114493496
0.341777387638921
0.342087269620672
0.342397759913217
0.383220213863887
0.383531919165405
0.383844231147042
0.384157149247144
0.384470672894977
0.384784801510707
0.385099534505379
0.385414871280899
0.385730811230012
0.386047353736286
0.396217242201437
0.396534987935922
0.396853334323004
0.397172280709344
0.397491826432327
0.397811970820048
0.39813271319129
0.398454052855506
0.398775989112802
0.399098521253918
0.458674911104258
0.45899863284768
0.459322948290767
0.459647856686618
0.459973357278875
0.460299449301711
0.460626131979808
0.460953404528343
0.46128126615297
0.461609716049801
0.478657414137221
0.478987038128563
0.479317247923048
0.479648042678467
0.479979421542987
0.480311383655138
0.480643928143799
0.480977054128179
0.481310760717801
0.48164504701249
0.50085677483205
0.501192217797472
0.501528237709084
0.501864833627762
0.502202004604605
0.502539749680926
0.502878067888233
0.503216958248219
0.503556419772742
0.503896451463819
0.492163895171997
0.492505064162778
0.492846800266951
0.493189102447017
0.493531969655563
0.493875400835252
0.49421939491881
0.494563950829012
0.49490906747867
0.495254743770623
0.496707465689248
0.497054257934345
0.497401606470283
0.49774951015988
0.498097967855922
0.498446978401152
0.498796540628253
0.499146653359845
