0.00356518581481412
0.00349209995861185
0.00342047675492321
0.00335028699474924
0.00328150205322445
0.0032140938779331
0.00314803497745909
0.00308329841016495
0.00301985777319514
0.00295768719169936
0.0550423626484369
0.0539136784110418
0.0528075829133971
0.0517236250685552
0.05066136281057
0.0496203629140602
0.0486002008173814
0.0476004604493342
0.0466207340593391
0.0456606220510068
0.0410981210230756
0.0402503133750698
0.0394194828281162
0.0386052904751665
0.0378074041864567
0.0370254984739454
0.0362592543584651
0.035508359239528
0.034772506767738
0.0340513967197532
0.0778379026207544
0.0762332963589808
0.0746608211534305
0.0731198355584493
0.0716097109557059
0.0701298312976166
0.0686795928559034
0.0672584039751773
0.0658656848314543
0.0645008671954972
0.0674184708262637
0.0660205682119803
0.0646506753771021
0.063308233336909
0.0619926942844473
0.0607035213669431
0.0594401884666933
0.0582021799863317
0.056988990638394
0.0558001252390916
0.0546309722084031
0.053489393151819
0.0523707094208077
0.0512744642990826
0.0502002102024632
0.0491475084962092
0.0481159293159967
0.0471050513924869
0.0461144618793949
0.0451437561850025
0.0349213890883844
0.034179326822918
0.0334521789137741
0.0327396481260394
0.0320414431671203
0.03135727856787
0.0306868745660935
0.030029956992387
0.0293862571582557
0.0287555117464682
0.0254519813567873
0.0249014278143478
0.0243619681612497
0.0238333815138234
0.023315451403481
0.0228079656883913
0.0223107164669214
0.0218234999928089
0.021346116592031
0.0208783705813382
0.00363182708057819
0.00352694121635011
0.00342424130495145
0.00332368438704345
0.00322522835986971
0.00312883196010771
0.00303445474706177
0.00294205708619355
0.00285160013298213
0.00276304581710374
-0.0275080308096043
-0.0269741149309386
-0.0264507895758141
-0.0259378425738248
-0.0254350660003557
-0.0249422560916739
-0.0244592131617218
-0.0239857415205678
-0.023521649394493
-0.0230667488476737
-0.0499904346222824
-0.0489922955057231
-0.0480140350671605
-0.0470552557354487
-0.0461155678929668
-0.0451945897165458
-0.0442919470215779
-0.0434072731092443
-0.0425402086168001
-0.041690401370849
-0.0709618573570365
-0.0695284007525188
-0.0681235371927009
-0.066746695212021
-0.065397314775923
-0.0640748470522263
-0.0627787541870655
-0.0615085090853147
-0.0602635951954014
-0.0590435062984245
-0.0911355110418746
-0.0892811988280131
-0.0874639095329388
-0.0856829035213638
-0.0839374559518571
-0.0822268564809461
-0.0805504089731355
-0.0789074312167275
-0.0772972546453241
-0.0757192240648998
-0.0814350349100974
-0.0797705058905848
-0.0781392143114954
-0.0765404963473947
-0.0749737014502001
-0.0734381920836107
-0.0719333434628484
-0.0704585432996032
-0.0690131915520808
-0.0675967001800485
-0.0971735391653251
-0.0951782717205046
-0.0932228738777132
-0.0913065495582627
-0.0894285186052432
-0.0875880164650537
-0.0857842938753038
-0.0840166165589563
-0.0822842649245868
-0.0805865337726395
-0.0989331703667828
-0.0968924092711023
-0.0948924460393219
-0.0929324662753256
-0.0910116718705334
-0.0891292806781131
-0.0872845261937054
-0.0854766572425372
-0.0837049376727892
-0.0819686460550999
-0.0686698030596
-0.0672400030903764
-0.0658387943093885
-0.0644656063051392
-0.0631198800737403
-0.061801067790725
-0.0605086325874256
-0.0592420483318215
-0.0580007994137715
-0.0567843805345425
-0.00685826163004055
-0.0066890686732699
-0.00652325606879023
-0.00636075701188776
-0.00620150603360914
-0.00604543897402676
-0.00589249295603889
-0.00574260635969237
-0.00559571879702148
-0.00545177108738448
-0.00466642045079535
-0.00454138737044207
-0.00441885928174379
-0.00429878687501173
-0.00418112182622776
-0.00406581677731133
-0.00395282531678287
-0.00384210196081058
-0.00373360213463814
-0.00362728215438413
0.0199923919852432
0.0196124152690809
0.0192400320513206
0.0188750899685095
0.018517439704874
0.0181669349313771
0.0178234322459976
0.0174867911152004
0.0171568738165793
0.0168335453826465
0.0495725434253662
0.0485843574313205
0.0476159328790737
0.046666874459385
0.0457367947692957
0.0448253141540089
0.0439320605519262
0.0430566693427865
0.0421987831988404
0.0413580519390022
0.0732988462389743
0.0718197296081331
0.0703702008288687
0.0689496684696629
0.0675575529273185
0.0661932861903864
0.0648563116073209
0.0635460836592746
0.062262067737437
0.0610037399248249
0.0912219125357637
0.0893686827113592
0.0875525344944961
0.0857727269637029
0.0840285340151394
0.0823192440662266
0.0806441597652043
0.0790025977064974
0.0773938881517749
0.0758173747565878
0.0972498121014189
0.0952647404980546
0.0933194004351381
0.0914129982676889
0.0895447562223564
0.0877139120799628
0.0859197188643963
0.0841614445377254
0.0824383717014119
0.0807497973034984
0.0970155354693439
0.0950265367127594
0.0930773625397185
0.0911672176520315
0.0892953226557309
0.0874609137429581
0.0856632423802124
0.0839015750028351
0.0821751927156054
0.0804833909993197
0.101707701315661
0.0996139206144155
0.0975620779921533
0.0955513361448004
0.0935808745120363
0.0916498889423876
0.0897575913650126
0.0879032094680556
0.0860859863834316
0.0843051803779145
0.0644309384310322
0.0630924451978037
0.0617807940038646
0.0604954492170942
0.0592358859155757
0.0580015896733639
0.0567920563505364
0.0556067918874441
0.054445312103077
0.0533071424974647
0.050981919236214
0.049913787020087
0.0488671012789417
0.0478414342513185
0.0468363667282783
0.045851487882326
0.0448863950997511
0.0439406938163271
0.0430139973562929
0.0421059267745547
0.0149407010505285
0.0146074181019094
0.0142808893043149
0.0139609803897844
0.0136475597730765
0.0133404984979952
0.0130396701847921
0.0127449509786173
0.0124562194990028
0.0121733567903552
-0.0193835148399057
-0.0190137562871628
-0.0186513045906711
-0.0182960132119758
-0.0179477385458142
-0.0176063398614521
-0.0172716792452068
-0.016943621544113
-0.0166220343107173
-0.0163067877489769
-0.0551818772437453
-0.0540756634446788
-0.0529914919840118
-0.0519289221223729
-0.0508875219371694
-0.0498668681462489
-0.0488665459350859
-0.0478861487874251
-0.0469252783193133
-0.0459835441164484
-0.0737578073212415
-0.0722649156403148
-0.0708018085477828
-0.0693678908335982
-0.0679625791934932
-0.0665853019908491
-0.0652354990233324
-0.0639126212941954
-0.0626161307881512
-0.0613455002517322
-0.0847929083444674
-0.0830662608447326
-0.0813740844149926
-0.079715690435866
-0.0780904040614843
-0.076497563944002
-0.0749365219636131
-0.0734066429639739
-0.0719073044929086
-0.0704378965483086
-0.100430671284299
-0.0983749735162893
-0.0963603441389611
-0.0943859629852284
-0.0924510262918548
-0.0905547463713472
-0.0886963512904111
-0.0868750845548347
-0.085090204800679
-0.0833409854916399
-0.0608338948733904
-0.0595801248421041
-0.0583513912179285
-0.0571471942202578
-0.0559670440645752
-0.0548104607625075
-0.0536769739258785
-0.0525661225746809
-0.0514774549488892
-0.0504105283240358
-0.0649006951395804
-0.0635574759400523
-0.0622410957010541
-0.0609510187865667
-0.0596867202733267
-0.058447685736543
-0.0572334110398983
-0.0560434021297515
-0.0548771748334552
-0.0537342546617078
-0.0634444041449766
-0.0621246942349493
-0.0608313673712436
-0.0595638971690119
-0.0583217677707122
-0.0571044736355307
-0.0559115193330154
-0.0547424193408375
-0.0535966978465966
-0.0524738885535919
-0.0392292144401188
-0.0383998247923014
-0.037587021338676
-0.0367904734760492
-0.0360098572127439
-0.0352448550363393
-0.0344951557840607
-0.0337604545157564
-0.0330404523894197
-0.0323348565391963
-0.000326075589956121
-0.000290437763896589
-0.000255514057858397
-0.000221290916449179
-0.000187755054969374
-0.00015489345397901
-0.000122693353975745
-9.11422501783665e-05
-6.02278874128892e-05
-2.99382551041116e-05
0.03787113413354
0.0371238505825773
0.0363915140261371
0.0356738252702207
0.0349704911048092
0.0342812241841912
0.0336057429096825
0.0329437713146915
0.0322950389520841
0.0316592807838006
0.0526333256672171
0.0515800042989799
0.0505477538121751
0.0495361528032044
0.0485447882964236
0.0475732555755819
0.0466211580186342
0.0456881069358575
0.044773721411203
0.0438776281468231
0.0646573281427232
0.0633527457012256
0.0620742651798857
0.0608213648207363
0.0595935333005659
0.0583902695222166
0.0572110824100562
0.0560554907095412
0.054923022790788
0.0538132164560731
0.0852847243534577
0.0835514338550076
0.0818528307656899
0.0801882220157156
0.0785569283957958
0.0769582842799149
0.0753916373536496
0.0738563483479197
0.072351790778065
0.0708773506881413
0.101336418884113
0.0992663929610216
0.0972378042677933
0.0952498251227343
0.0933016443963102
0.0913924671800765
0.0895215144622317
0.0876880228096568
0.0858912440563184
0.0841304449978999
0.109449386545938
0.10720399722851
0.105003570064012
0.102847207190547
0.100734028701371
0.09866317228576
0.0966337928770553
0.0946450623077468
0.0926961689714596
0.0907863174916965
0.0826213625035424
0.0809162851113583
0.0792453756963045
0.0776079521799158
0.0760033461229628
0.0744309024526388
0.0728899791952009
0.0713799472139578
0.0699001899524978
0.0684501031830518
0.0727848967994125
0.0712743932067204
0.0697941803274773
0.0683436536749213
0.0669222208493139
0.06552930129617
0.0641643260693208
0.0628267375987157
0.0615159894628672
0.0602315461658556
0.0312541260894541
0.0305889595892328
0.0299371829374229
0.0292985292935555
0.0286727371513082
0.0280595502318022
0.0274587173790302
0.0268699924573772
0.0262931342511905
0.0257279063663596
0.00894305390922323
0.00873313020435074
0.00852749667605668
0.00832606824915061
0.00812876154728137
0.00793549485893319
0.00774618810412697
0.00756076280175844
0.00737914203761481
0.00720125043301501
-0.0182610938302679
-0.0179133442630102
-0.0175724574580283
-0.0172382957716088
-0.0169107243154185
-0.0165896109013932
-0.0162748259877503
-0.0159662426260638
-0.0156637364094063
-0.01536718542153
-0.0628310082826848
-0.0615670497551504
-0.0603282869271231
-0.0591142161115465
-0.0579243436970582
-0.0567581859464656
-0.0556152687992597
-0.0544951276780674
-0.0533973072989902
-0.0523213614857174
-0.0875571768452015
-0.0857797301298779
-0.084037760755499
-0.0823305598697575
-0.0806574327987937
-0.0790176987636069
-0.0774106906021381
-0.075835754496913
-0.0742922497081278
-0.0727795483120808
-0.0715362903849379
-0.0700784572849522
-0.0686497163222035
-0.067249486364545
-0.0658771979036752
-0.0645322928226388
-0.0632142241679801
-0.0619224559264531
-0.0606564628061954
-0.0594157300222822
-0.0849225399732245
-0.0831830107526605
-0.0814782217605261
-0.0798074792441263
-0.0781701033264635
-0.076565427728696
-0.0749927994981456
-0.0734515787417442
-0.0719411383648112
-0.0704608638150559
-0.0690839696962231
-0.0676607188277991
-0.0662658931843247
-0.0648989253191961
-0.0635592591350833
-0.062246349656917
-0.0609596628094091
-0.0596986751990274
-0.0584628739003288
-0.0572517562465653
-0.0723425107475534
-0.0708456020015316
-0.0693786064993843
-0.0679409272372701
-0.0665319791512365
-0.0651511888783842
-0.0637979945228079
-0.0624718454262171
-0.0611722019431454
-0.0598985352206555
-0.0561515015772246
-0.0549794695153664
-0.0538308651053717
-0.05270522102074
-0.0516020792809521
-0.0505209910645102
-0.0494615165257169
-0.048423224615118
-0.0474056929035365
-0.0464085074096243
-0.0316817161884788
-0.0310058780864816
-0.0303435523854724
-0.0296944698867304
-0.0290583667747178
-0.0284349845093762
-0.0278240697205748
-0.0272253741046707
-0.026638654323137
-0.0260636719032168
0.00941761677182446
0.00925401024209443
0.00909367891292923
0.00893655667227311
0.00878257873108107
0.0086316815968952
0.0084838030479501
0.00833888210779754
0.00819685902043915
0.00805767522595735
0.0352227639511637
0.0345294106394788
0.0338499285857807
0.0331840401036469
0.0325314730612026
0.031891960770068
0.031265241876527
0.0306510602548744
0.0300491649028966
0.0294593098394452
0.0642921495042695
0.0629997378004496
0.0617331852421731
0.0604919748328461
0.0592755999165994
0.0580835639715148
0.0569153804069881
0.0557705723651469
0.0546486725262415
0.0535492229179302
0.0952763927101549
0.0933430168751178
0.091448332602876
0.0895915667873461
0.0877719617852872
0.0859887751070902
0.0842412791137546
0.0825287607199263
0.0808505211028796
0.0792058754173197
0.0929174836178557
0.0910238994366821
0.0891682222958057
0.0873496949785144
0.0855675754135274
0.0838211363721535
0.0821096651715107
0.0804324633836839
0.0787888465507041
0.077178143905229
0.0754339875842454
0.0738905514555461
0.0723780286617157
0.0708958018725112
0.0694432661062208
0.068019828482798
0.0666249079819319
0.0652579352059686
0.0639183521475704
0.0626056119620282
0.0948990624237886
0.0929500276404993
0.0910400364399466
0.0891683093262605
0.087334082396207
0.0855366070274726
0.0837751495731927
0.0820489910625914
0.080357426907617
0.0786997666154483
0.0965576347464099
0.0945663809793285
0.0926150341842265
0.0907027978723001
0.0888288914886424
0.086992550093755
0.0851930240514491
0.0834295787229813
0.0817014941673229
0.0800080648474317
0.0494084318965484
0.0483755223749593
0.0473633620640781
0.0463715373235729
0.0453996427927059
0.0444472812250147
0.0435140633263256
0.042599607596002
0.0417035401713859
0.0408254946753628
0.036407160028622
0.035637026021381
0.0348823985609457
0.0341429688979575
0.0334184344681256
0.0327084987689172
0.0320128712387096
0.0313312671383814
0.0306634074352816
0.0300090186895305
-0.00657505450526941
-0.00646647521401711
-0.00635995875416562
-0.00625546281210543
-0.00615294590556825
-0.00605236736648163
-0.00595368732415213
-0.00585686668876839
-0.00576186713522109
-0.00566865108723213
-0.0137957149990937
-0.0135374772628323
-0.0132842863761065
-0.0130360402720608
-0.012792638904279
-0.0125539842056988
-0.0123199800483293
-0.0120905322037608
-0.0118655483044456
-0.0116449378057357
-0.0499833730878736
-0.0489808771581464
-0.0479983110334743
-0.0470352752227567
-0.0460913781957464
-0.0451662362229639
-0.0442594732187889
-0.0433707205876699
-0.0424996170733865
-0.0416458086113103
-0.0815392959317922
-0.0798840764718989
-0.078261841611492
-0.076671930935424
-0.0751136971976765
-0.0735865060568743
-0.0720897358170678
-0.0706227771736705
-0.0691850329644632
-0.0677759179255419
-0.0721859573498111
-0.0707136744702535
-0.0692707098461942
-0.0678564760166545
-0.0664703972184939
-0.0651119091511014
-0.0637804587457609
-0.0624755039396039
-0.0611965134540564
-0.0599429665776876
-0.0642237449302088
-0.0629066225110417
-0.0616157031445215
-0.0603504611637287
-0.0591103813488334
-0.0578949587165161
-0.056703698313568
-0.0555361150145934
-0.0543917333237216
-0.053270087180262
-0.0803107970939818
-0.0786563926456783
-0.0770349250309241
-0.0754457335150698
-0.0738881704937988
-0.072361601228573
-0.070865403587332
-0.0693989677903475
-0.0679616961611313
-0.0665530028822898
-0.0773426722707709
-0.0757399336820241
-0.0741690777859711
-0.0726294641459375
-0.0711204650285173
-0.0696414651472355
-0.0681918614113011
-0.0667710626793581
-0.0653784895181269
-0.0640135739658396
-0.0241953284753023
-0.0236729129294413
-0.0231607306657398
-0.0226585725994886
-0.0221662336985469
-0.0216835128997133
-0.021210213026742
-0.0207461407099638
-0.0202911063074909
-0.0198449238279639
-0.0418976961898478
-0.0410076258153598
-0.0401350974035122
-0.039279754563097
-0.0384412478742184
-0.0376192347459998
-0.0368133792771039
-0.0360233521190223
-0.0352488303420699
-0.0344894973040391
0.00711206491790373
0.00700438038487716
0.00689918261923139
0.00679642963967186
0.00669608049030623
0.00659809522322519
0.00650243488144886
0.00640906148223164
0.00631793800071856
0.00622902835394257
0.0314616502955467
0.0308580202413612
0.0302668887826181
0.0296880160130293
0.0291211670414631
0.0285661118948546
0.0280226254230682
0.027490487205666
0.0269694814605448
0.0264593969544031
0.0576905310876719
0.0565512018140544
0.0554352042547721
0.0543420845487068
0.0532713981608526
0.0522227096989973
0.0511955927340597
0.0501896296240063
0.0492044113412806
0.0482395373036624
0.0723199101956453
0.0708815404899084
0.0694726291865084
0.0680926028312143
0.0667408997187882
0.065416969661011
0.0641202737593134
0.0628502841819234
0.0616064839454342
0.0603883667006984
0.0736433874383344
0.0721789774635759
0.0707447205745839
0.0693400325319753
0.067964341089203
0.0666170857552695
0.0652977175621294
0.0640056988366782
0.0627405029772445
0.0615016142344773
0.103640059289991
0.101563578978618
0.099529706914756
0.097537613479973
0.095586485978409
0.0936755283001638
0.0918039605913221
0.0899710189304921
0.0881759550117094
0.0864180358335851
0.0953512435395822
0.0934470545400661
0.0915822712823831
0.0897561317030835
0.0879678893239646
0.0862168129411529
0.0845021863202629
0.0828233078975371
0.0811794904868215
0.079570060992272
0.0674314577338846
0.0661053778993006
0.0648074149111135
0.0635370358122991
0.0622937186507899
0.0610769522587313
0.059886236035994
0.0587210797378441
0.0575810032666952
0.0564655364678401
0.0936070338737185
0.091755646880503
0.0899432021562649
0.0881689541167532
0.0864321724204746
0.0847321416613767
0.0830681610674704
0.0814395442052795
0.0798456186899914
0.0782857259011918
0.051156638306864
0.0501877384647447
0.0492404716019017
0.0483144411783929
0.0474092588823085
0.0465245444605724
0.0456599255528873
0.0448150375287542
0.0439895233275092
0.0431830333013163
0.00590408162735923
0.005882683695007
0.00586433309382706
0.00584900728016446
0.00583668440141771
0.00582734327506707
0.00582096336784765
0.00581752477506559
0.0058170082000597
0.00581939493379302
-0.0329729370155913
-0.0321694515930355
-0.0313790327634651
-0.0306013792243682
-0.0298361955425319
-0.0290831920465893
-0.0283420847220013
-0.0276125951084394
-0.0268944501995039
-0.026187382344748
-0.0502438856246412
-0.0490507615117854
-0.0478780977527942
-0.0467254443902609
-0.0455923604213444
-0.0444784136315572
-0.0433831804321443
-0.0423062457010417
-0.0412472026272868
-0.0402056525588543
-0.0660376239554097
-0.0644793426572416
-0.0629484239997087
-0.0614442804801989
-0.059966336443166
-0.0585140278589895
-0.0570868021075244
-0.0556841177662823
-0.0543054444031226
-0.0529502623733711
-0.0756158762174017
-0.0738142079522968
-0.0720443801858499
-0.0703057178695046
-0.0685975597228907
-0.0669192579769886
-0.0652701781226774
-0.0636496986645794
-0.0620572108800523
-0.0604921185832632
-0.0886468134002234
-0.0865260702935684
-0.0844431888873043
-0.0823973776111941
-0.0803878611893998
-0.0784138803354368
-0.0764746914534316
-0.0745695663455459
-0.0726977919254361
-0.070858669937631
-0.0826615863420805
-0.0806067277087146
-0.0785880966710342
-0.0766049400995001
-0.074656520606561
-0.0727421162543243
-0.070861020268195
-0.0690125407563507
-0.0671960004349326
-0.0654107363588237
-0.0638478647461307
-0.0621192892069011
-0.0604201631726942
-0.0587498768976316
-0.0571078337395527
-0.0554934499212236
-0.0539061542963353
-0.0523453881201967
-0.0508106048250059
-0.0493012697995989
-0.0459148557590314
-0.0444938510399999
-0.0430959800436592
-0.0417207694517794
-0.0403677565535752
-0.0390364890564898
-0.0377265249006586
-0.0364374320769669
-0.0351687884486127
-0.0339201815760957
0.00303819846461062
0.0035154829059918
0.00398856976701589
0.00445754165712309
0.00492247816901914
0.00538345591772416
0.00584054857908756
0.00629382692779057
0.00674335887485888
0.00718920950471702
0.00991831007679345
0.0103101016785354
0.0106993288312678
0.0110860269391453
0.0114702291335536
0.0118519663003767
0.0122312671071136
0.01260815802986
0.0129826633801651
0.0133548053317978
0.0578670664369172
0.0573296248225117
0.0568079836494855
0.0563017951544889
0.0558107168017217
0.0553344111647665
0.0548725458113233
0.0544247931908037
0.053990830524739
0.0535703396999625
0.183910270167389
0.179437401081259
0.175042092079311
0.170723047749829
0.166479001513137
0.162308714902864
0.158210976860673
0.154184603044274
0.15022843514861
0.146341340240007
0.143296541489305
0.139528418292034
0.135826432719547
0.132189540576008
0.128616720024377
0.125106970992922
0.121659314593796
0.118272792553505
0.114946466655175
0.111679418192447
0.151739757845951
0.147701574300363
0.143737775382136
0.139847160698328
0.136028553895585
0.132280802039435
0.128602775007179
0.1249933648942
0.121451485433508
0.117976071428346
0.126390845041304
0.122802841660272
0.119283080311078
0.115830477780722
0.112443971216769
0.109122517595942
0.105865093205379
0.102670693136336
0.0995383307901694
0.0964670373964207
0.112302413695195
0.10896406894496
0.105691721146638
0.102484313852264
0.0993408092956152
0.0962601879173945
0.0932414479025265
0.0902836047293594
0.0873856907305584
0.084546754665535
0.0762308217452503
0.0736205190704702
0.0710641642566294
0.0685609130655198
0.0661099348068515
0.0637104119938741
0.0613615400087895
0.0590625267778258
0.0568125924557634
0.0546109691197287
0.0797568314734622
0.0770899274370684
0.0744802992907783
0.0719270002547088
0.0694290985463635
0.0669856770369943
0.0645958329178136
0.0622586773758407
0.0599733352792118
0.0577389448717156
0.0256219615795512
0.024100557773636
0.0226153175393726
0.0211656749802298
0.0197510712754081
0.0183709545237676
0.0170247795936564
0.0157120079785198
0.0144321076581075
0.0131845529651553
-0.0115073303105415
-0.0122104877834897
-0.0128924710903604
-0.0135535893790824
-0.0141941498807086
-0.0148144579360263
-0.0154148170192308
-0.0159955287587863
-0.0165568929555384
-0.0170992075982426
-0.043233080435634
-0.0432131746178399
-0.0431856093396608
-0.0431504656266188
-0.0431078269301004
-0.0430577790453572
-0.043000410029288
-0.0429358101180242
-0.0428640716444075
-0.0427852889554057
-0.0742991590318898
-0.0735587907974757
-0.0728246366947012
-0.0720965394117457
-0.0713743484166471
-0.0706579197720529
-0.0699471159524077
-0.0692418056635358
-0.0685418636646791
-0.0678471705929837
-0.106214949174278
-0.104729748084022
-0.103265495037673
-0.101821772487687
-0.100398174323269
-0.0989943055817637
-0.0976097821651294
-0.0962442305614513
-0.0948972875714187
-0.0935686000397737
-0.10988602716111
-0.108231454030395
-0.106601366687507
-0.104995305140035
-0.103412821057722
-0.101853477474869
-0.100316848498568
-0.0988025190226463
-0.0973100844472965
-0.0958391504042897
-0.103899010548528
-0.102274986859202
-0.100675240760786
-0.0990993382620973
-0.0975468558695063
-0.0960173803132545
-0.0945105082795408
-0.0930258461483158
-0.0915630097366869
-0.0901216240478853
-0.0912337104447642
-0.0897822231130752
-0.0883521531387652
-0.0869431391201081
-0.0855548280818601
-0.0841868752476493
-0.0828389438175838
-0.0815107047509578
-0.080201836554024
-0.0789120250727136
-0.102292191962912
-0.100534232746819
-0.0988045432313731
-0.0971026346817743
-0.0954280287774516
-0.093780257352269
-0.0921588621407841
-0.0905633945304745
-0.0889934153198269
-0.0874484944821621
-0.105035921094618
-0.103148156844829
-0.101292052785382
-0.0994670567923821
-0.0976726279493674
-0.0959082362809305
-0.0941733624926417
-0.0924674977171591
-0.0907901432664104
-0.0891408103897215
-0.0339704768292437
-0.0334734977555455
-0.0329811624803478
-0.0324934584135042
-0.0320103730045429
-0.0315318937095945
-0.0310580079599623
-0.0305887031323189
-0.0301239665204833
-0.0296637853087396
-0.0217497119714167
-0.0214514995112864
-0.0211547432064254
-0.0208594906715689
-0.0205657880784016
-0.0202736801618246
-0.0199832102270303
-0.0196944201573475
-0.0194073504228429
-0.0191220400896461
0.0247345449912824
0.0241229824525968
0.0235274279151372
0.0229474908344431
0.0223827891525636
0.0218329491421247
0.0212976052527019
0.0207763999594701
0.0202689836140975
0.0197750142978577
0.0471163351553021
0.0460779132350333
0.0450633718507301
0.0440721706337714
0.0431037808013799
0.0421576849312402
0.0412333767399691
0.0403303608653607
0.0394481526523647
0.0385862779427271
0.0585762612268059
0.0573266188917136
0.0561044950441119
0.0549092848075023
0.0537403962165968
0.0525972499595087
0.0514792791246048
0.0503859289519335
0.049316656589145
0.0482709308518432
0.0690929074945856
0.0676449138824227
0.0662279030113853
0.0648412090883967
0.0634841804330435
0.0621561791914029
0.0608565810552291
0.0595847749864227
0.0583401629466946
0.0571221596323124
0.101006315887027
0.0989157689463269
0.0968686415720112
0.0948640275435633
0.0929010395076881
0.0909788085941354
0.0890964840389916
0.0872532328152991
0.0854482392708755
0.0836807047731911
0.075074426323944
0.0735204256243103
0.0719987660347714
0.070508769916235
0.0690497738486604
0.0676211283382226
0.0662221975302035
0.0648523589275483
0.0635110031149599
0.0621975334884342
0.0684657714557781
0.0670514699620215
0.0656664383540795
0.064310066781843
0.0629817581701264
0.0616809279540673
0.0604070038197886
0.0591594254502583
0.057937644276203
0.056741123232027
0.0678272517772704
0.0664283989142502
0.0650582905684827
0.0637163329174895
0.0624019445019615
0.0611145559695023
0.0598536098235432
0.0586185601773215
0.0574088725128341
0.0562240234446758
0.0356364939115767
0.0348980464244057
0.0341749617621172
0.0334669179647111
0.0327735999109109
0.0320946991730295
0.0314299138748186
0.0307789485522374
0.0301415140171173
0.0295173272236138
-0.0120642584235053
-0.0118228875829463
-0.0115858910752564
-0.0113531929941324
-0.0111247186309544
-0.0109003944582486
-0.0106801481133996
-0.0104639083825422
-0.0102516051847115
-0.0100431695561838
-0.022823546647869
-0.0223564525418283
-0.0218983528930501
-0.0214490766701161
-0.0210084560110886
-0.0205763261664611
-0.0201525254431498
-0.0197368951494852
-0.0193292795412159
-0.0189295257684634
-0.0481676930641779
-0.0471758002062721
-0.0462034835687648
-0.0452503586120594
-0.0443160482943732
-0.0434001829270292
-0.0425024000325447
-0.0416223442054457
-0.0407596669757604
-0.0399140266751488
-0.0690947322006847
-0.067666973418981
-0.0662675778219528
-0.0648959837955374
-0.0635516408124479
-0.0622340092146736
-0.0609425600002336
-0.059676774614104
-0.058436144743248
-0.0572201721156507
-0.0780340374217969
-0.0764148102266953
-0.0748278317959965
-0.0732724618009346
-0.0717480726121167
-0.070254049049014
-0.0687897881344526
-0.0673546988539808
-0.0659482019200661
-0.064569729541021
-0.102111294034485
-0.0999899195267329
-0.0979108889915166
-0.0958733597619057
-0.0938765059528563
-0.0919195181300552
-0.0900016029857795
-0.088121983021785
-0.0862798962391844
-0.0844745958353608
-0.0863581551053265
-0.0845493643210773
-0.0827767063606908
-0.0810394623924138
-0.0793369279728138
-0.0776684127767391
-0.0760332403360531
-0.0744307477876252
-0.0728602856312248
-0.0713212174980322
-0.0835145660929983
-0.081755546332837
-0.0800317093774163
-0.078342357060782
-0.0766868056328356
-0.0750643855720918
-0.0734744414205295
-0.0719163316431537
-0.0703894285151967
-0.0688931180403185
-0.0401281765670976
-0.0392508824368423
-0.0383912215426903
-0.0375488584001458
-0.0367234669864254
-0.03591473103151
-0.0351223443760591
-0.0343460114039487
-0.0335854475578619
-0.0328403799469599
-0.0127272278188508
-0.0124097399325707
-0.0120990550744393
-0.0117951140909609
-0.0114978710942943
-0.0112072949052138
-0.0109233706630345
-0.0106461016138573
-0.0103755110880059
-0.0101116446767993
-0.000796877826352738
-0.000732379196240807
-0.000671183948997012
-0.00061352696487571
-0.000559678030777278
-0.000509945365719133
-0.000464679361505738
-0.0004242765272231
-0.000389183621006595
-0.000359901946712871
0.0340711701347471
0.0333817220392159
0.032698703026893
0.0320210666057741
0.0313476946853624
0.0306773930484261
0.0300088870277873
0.0293408174758798
0.0286717371240974
0.0280001074379812
0.0622664282755161
0.0608683980452409
0.0594769690866319
0.0580899341667727
0.0567049964927779
0.0553197720726715
0.0539317934999772
0.0525385153022233
0.0511373209888157
0.0497255319261223
0.0779443221343863
0.0758954189785515
0.0738397925300252
0.0717744017818349
0.0696962237471617
0.067602275034738
0.0654896356481043
0.0633554749508018
0.061197079701051
0.0590118840182186
0.0865791455043627
0.0837228809431227
0.0808455452114059
0.0779452488940331
0.0750204257062297
0.0720698685669481
0.0690927653942381
0.0660887341386367
0.0630578565381521
0.0600007100517486
0.0719473255534773
0.068533410222849
0.0651043785836967
0.0616629308472385
0.0582123777979264
0.0547566498064942
0.0513003001448222
0.0478485021541006
0.0444070398759697
0.0409822918246414
0.058873537000526
0.0550671168769217
0.0513085790804828
0.0476061994648331
0.0439686624965336
0.0404050019843707
0.0369245353039114
0.0335367915987508
0.0302514345494869
0.0270781804064004
0.012832682262232
0.0101420365466245
0.00758749202941722
0.00517818216722166
0.00292284098460538
0.000829712142881078
-0.00109353971395088
-0.00283991419410068
-0.00440315584752504
-0.00577782921830572
0.00668939009308822
0.00542474724271447
0.00436501396834732
0.00351163091949758
0.00286496384074209
0.002424281089632
0.0021877420452574
0.00215239665275924
0.00231419619698237
0.00266801524385318
-0.00286633508984657
-0.00202346853205526
-0.00101252966340493
0.000157531061963923
0.00147695000340065
0.00293522974128546
0.00452122525970111
0.00622323583704798
0.00802910151404657
0.00992630296429375
-0.0234598555138783
-0.0206935517517985
-0.0178891094393405
-0.0150591708607175
-0.012216234831957
-0.00937256100145234
-0.00654007859788308
-0.0037303004815481
-0.000954243246304998
0.00177764599893671
-0.0207121882077717
-0.0175814401567926
-0.0145324874939785
-0.0115727094699833
-0.00870866710061513
-0.00594607591706175
-0.00328978617756448
-0.000743770157257018
0.00168888397000355
0.00400597223584853
-0.00447100171524806
-0.00216927049146509
1.11328813252598e-05
0.00207153381573821
0.00401407554538125
0.00584169882469698
0.00755812111492382
0.00916781607677297
0.0106759941557417
0.01208858499756
-0.0381216254849095
-0.0358231783294389
-0.033619491264373
-0.0315014528463591
-0.0294592805080143
-0.0274825157721024
-0.0255600148376418
-0.0236799345947807
-0.0218297142626245
-0.019996052986607
-0.0414178803294529
-0.0390976581078162
-0.036758918257104
-0.0343849243164218
-0.0319580530614649
-0.0294597631345042
-0.0268705661184105
-0.0241700015394537
-0.0213366173999212
-0.0183479579439245
-0.030711815035243
-0.0270228287142258
-0.0231115732615121
-0.0189515367751261
-0.014515317848308
-0.00977469565571365
-0.00470072024575963
0.000736175310663612
0.00656603942547651
0.0128192418660653
-0.0101138632659969
-0.0023149255371413
0.00598623726785519
0.0148193992676244
0.024213455654154
0.0341961047220334
0.0447935055753614
0.056029913360149
0.0679272944100457
0.0805049242470774
0.101253574328581
0.115083448856578
0.129634120621013
0.144909811837818
0.160909929522215
0.177628652763864
0.195054538079352
0.213170149497418
0.231951720232151
0.25136885290105
0.285787408923929
0.306061469212024
0.326843750106461
0.348075226814791
0.369689562034576
0.39161317476705
0.413765389391084
0.436058668447528
0.458398931592761
0.480685962086154
0.510609162432868
0.532307287611811
0.553623282514755
0.574438116227084
0.59462992972132
0.614074926085593
0.63264832215734
0.650225352646531
0.666682316697255
0.681897655815007
0.716536259575129
0.728491683084567
0.738873180694974
0.747578567354516
0.754513224062922
0.759591094158232
0.762735618858667
0.76388059923574
0.762970972530024
0.759963491665321
0.765288867876741
0.757791487404671
0.74814684006548
0.736363393640794
0.722463078158636
0.706481225783023
0.688466376292968
0.668479949801238
0.646595790207488
0.622899584673153
0.634124945382254
0.606354437258595
0.577107527892103
0.546508969916047
0.514690900550612
0.481791714445535
0.4479548893013
0.413327778726433
0.378060387004304
0.3423041404263
0.328716795802876
0.291975370179564
0.255205095021047
0.218551038202037
0.182153982471185
0.146149455722444
0.110666842435649
0.0758285838186197
0.0417494727233887
0.00853604790918183
0.0154738141305799
-0.0165273942558031
-0.0473812608754329
-0.0770185789570448
-0.105379872319602
-0.132415391562198
-0.158085018849746
-0.18235808718034
-0.205213120843545
-0.226637504455823
-0.210453459540567
-0.229753665407138
-0.247619484101243
-0.2640695836063
-0.279129047163252
-0.29282878815183
-0.305204951877656
-0.316298311958306
-0.326153668521641
-0.334819254875327
-0.331240486810849
-0.337909756086518
-0.343544314028996
-0.348200651351277
-0.351936038564304
-0.354808086653385
-0.35687434412155
-0.358191931647085
-0.358817214985425
-0.358805516170715
-0.36153935924003
-0.360346035615709
-0.358674472531522
-0.356573641851408
-0.354090570894385
-0.351270258926974
-0.348155620682082
-0.344787454295833
-0.341204430964005
-0.337443103576696
-0.303724425779961
-0.300318986701821
-0.296820274879611
-0.293256985262982
-0.289655923587414
-0.286042073920516
-0.282438667904696
-0.278867253826348
-0.275347763844255
-0.271898577921704
-0.311995368943421
-0.307845114105586
-0.303829384882462
-0.299960531150404
-0.296249592381162
-0.292706323415448
-0.289339212895801
-0.286155494620477
-0.283161152265912
-0.280360918099163
-0.29247025339242
-0.289765796016887
-0.287268085283998
-0.284976624468069
-0.282889603285856
-0.281003881336357
-0.279314973389944
-0.27781703791533
-0.276502870231628
-0.275363901647353
-0.302125967677096
-0.300737696302296
-0.299502220936841
-0.298405444885937
-0.297432040244246
-0.29656550693635
-0.295788244527586
-0.295081637118777
-0.294426151422535
-0.293801447892715
-0.321542461468905
-0.320334416281099
-0.319104228217022
-0.317829455116716
-0.31648758375813
-0.315056203455519
-0.313513185391539
-0.311836865831554
-0.310006231225943
-0.308001103092678
-0.328938789994615
-0.326054092663028
-0.322950667972087
-0.319613255193808
-0.316028276022298
-0.312183971681073
-0.308070524762933
-0.303680164047311
-0.299007250742504
-0.294048344831134
-0.347304434022211
-0.340572935778722
-0.33358266320046
-0.32633872621537
-0.318848449080907
-0.311121304917485
-0.303168829076647
-0.295004512364728
-0.286643675419016
-0.278103325788382
-0.283389298506264
-0.274260150247209
-0.265016722000007
-0.255680945584684
-0.24627553664828
-0.236823791147875
-0.227349379990519
-0.217876144259051
-0.208427893394618
-0.199028208612964
-0.204631306778685
-0.195091563597335
-0.185674043108409
-0.176399501926587
-0.167287635724538
-0.158356952833478
-0.149624664057532
-0.141106589346608
-0.132817081721089
-0.124768968594346
-0.100273581945898
-0.0930827941642116
-0.0861555488441121
-0.0794984610781477
-0.0731165743603581
-0.0670133970666473
-0.0611909515532409
-0.0556498346012617
-0.0503892878597005
-0.045407276888084
-0.0390178544270174
-0.0346166397526551
-0.0304804001217698
-0.0266029231294396
-0.0229771946447277
-0.0195955001213488
-0.0164495251498515
-0.0135304541883241
-0.0108290665135278
-0.0083358285453019
0.00892485258545772
0.0107244107541329
0.012351582702943
0.0138162033155274
0.0151280371518656
0.0162967192025281
0.017331702035706
0.0182422093251651
0.0190371956666597
0.0197253125188595
0.0440596288416222
0.0440718490259213
0.0440108229604377
0.0438835679638006
0.0436967141183651
0.0434565006110472
0.0431687758284758
0.0428390007956541
0.0424722555510262
0.0420732480600203
0.0809225959130337
0.0796665981039957
0.0784064622576266
0.0771452131208807
0.0758855796898814
0.0746300118792846
0.0733806975046982
0.0721395793616688
0.0709083722113477
0.0696885795088047
0.0851708695200437
0.083635522245074
0.0821218395816472
0.0806305007711634
0.0791620521786229
0.077716920262501
0.0762954237486104
0.0748977849973591
0.0735241405651457
0.072174550970252
0.0899581388603297
0.0882648458143702
0.086603258798065
0.0849730601421816
0.0833738970155036
0.0818053869282398
0.0802671226657887
0.0787586766934334
0.0772796050723015
0.0758294509261486
0.10888431996403
0.106783827940735
0.104724978217354
0.102707006701058
0.100729153891981
0.0987906662874138
0.0968907975693449
0.0950288095999801
0.0932039732477232
0.0914155690641341
0.11163194376458
0.109463924068941
0.1073392542274
0.105257077935446
0.103216553907886
0.101216855918973
0.0992571727903337
0.0973367083348462
0.0954546812635577
0.0936103250618556
0.104843081869961
0.102804503873426
0.100806734124538
0.0988489566896611
0.0969303716297567
0.0950501947393336
0.0932076572804377
0.0914020057134683
0.0896325014262498
0.0878984204626292
0.106083071923583
0.104010103153382
0.101978628686968
0.0999878175935169
0.0980368555213342
0.0961249443741714
0.0942513019924966
0.0924151618399147
0.0906157726948269
0.0888523983474663
0.0665886233496735
0.065316107650025
0.0640690602708531
0.0628469703737515
0.0616493373336642
0.060475670535487
0.0593254891745545
0.0581983220609832
0.0570937074278266
0.0560111927429467
0.0544568727799124
0.053427352319126
0.0524184253456141
0.0514296785012913
0.050460706695711
0.049511112940813
0.0485805081889659
0.047668511174237
0.0467747482568353
0.0458988532706446
0.0399971880341852
0.0392593461483255
0.0385362480031706
0.0378275971814794
0.0371331031955382
0.036452481368638
0.0357854527188763
0.0351317438453282
0.034491086816443
0.0338632190607111
-0.0199127427201322
-0.019426012659709
-0.0189490596105273
-0.0184816902177793
-0.0180237149914593
-0.0175749482289937
-0.0171352079394396
-0.0167043157692071
-0.0162820969292437
-0.0158683801236954
-0.0369224472476777
-0.036085318254429
-0.0352650016251062
-0.0344611635374328
-0.033673476842436
-0.0329016209309145
-0.0321452816025793
-0.0314041509378207
-0.030677927172027
-0.0299663145724196
-0.0655247388264666
-0.064098247325985
-0.0627003890529778
-0.0613305941816353
-0.0599883042784199
-0.0586729720741612
-0.0573840612406862
-0.0561210461719295
-0.0548834117694206
-0.0536706532320501
-0.0810682474025182
-0.0793177575709887
-0.0776024166215432
-0.0759215247228333
-0.0742743960348058
-0.0726603584287879
-0.0710787532131807
-0.0695289348646391
-0.068010270764626
-0.0665221409412293
-0.0607707901069627
-0.0594299272301271
-0.0581160507829885
-0.0568286240731979
-0.0555671211361641
-0.0543310265204155
-0.0531198350772719
-0.0519330517546912
-0.0507701913952721
-0.0496307785382779
-0.0828350119177204
-0.0810375362385196
-0.0792762183286584
-0.0775503384286136
-0.0758591911667299
-0.0742020852713674
-0.0725783432888178
-0.070987301306852
-0.0694283086838032
-0.0679007277830666
-0.0761821486071561
-0.0745150768028466
-0.0728815908741689
-0.0712810225430296
-0.0697127168885574
-0.0681760320798599
-0.0666703391141388
-0.0651950215600321
-0.063749475306099
-0.0623331083143226
-0.0545800543394632
-0.0533508044037134
-0.0521464162439571
-0.0509663958978956
-0.0498102592733005
-0.0486775319505224
-0.0475677489889526
-0.046480454737349
-0.0454152026479626
-0.0443715550943748
-0.0244499627234473
-0.0238356757267795
-0.0232339785973865
-0.0226446224818453
-0.0220673634939814
-0.0215019626154325
-0.020948185598213
-0.0204058028692202
-0.0198745894366557
-0.0193543247983143
0.0136313100866206
0.0134645651486105
0.0133008305156057
0.0131400435408748
0.0129821428408601
0.0128270682699929
0.0126747608960036
0.0125251629757335
0.0123782179314311
0.0122338703275098
0.0301428479724484
0.0296334946578547
0.0291339846152381
0.0286441188673434
0.0281637024272152
0.0276925442184668
0.0272304569971329
0.0267772572751017
0.0263327652450585
0.025896804706945
0.108549305544322
0.10608316801643
0.103668735142418
0.101304968490234
0.0989908501328074
0.0967253822414369
0.094507586687322
0.0923365046510778
0.0902111962400776
0.0881307401134395
0.10398855766921
0.101628283085891
0.099317545759015
0.09705534834728
0.0948407132276623
0.0926726821046229
0.0905503156271239
0.0884726930133208
0.0864389116827518
0.0844480868958968
0.116713487433767
0.114104605679037
0.111550166483367
0.109049072697561
0.106600248922176
0.104202641076082
0.101855215973661
0.0995569609104283
0.0973068832569748
0.0951040100609859
0.1005212418931
0.0982546724717643
0.0960356101003796
0.0938630946606889
0.0917361850787817
0.0896539589476806
0.0876155121574858
0.0856199585328827
0.0836664294778959
0.0817540736277369
0.102011122032769
0.0997249826919315
0.097486641137106
0.095295130283704
0.0931495022647333
0.0910488280498036
0.0889921970716916
0.0869787168603811
0.0850075126843972
0.0830777271993011
0.0951678816802453
0.0930318542400173
0.0909405095392106
0.0888929418738407
0.0868882635622281
0.0849256045876778
0.0830041122482861
0.0811229508137377
0.0792813011889404
0.0774783605843528
0.0599898434688093
0.0585843058751916
0.0572087128477587
0.0558624524721019
0.0545449250108021
0.0532555426627788
0.0519937293274371
0.050758920373509
0.049550562412481
0.0483681130765206
0.0342181242075839
0.0333522611563666
0.0325054131242144
0.0316771861412768
0.0308671940837435
0.0300750585195324
0.0293004085570683
0.028542880697044
0.0278021186871023
0.0270777733794372
0.0118542330146827
0.0114592625729593
0.0110737476029907
0.01069748492767
0.0103302754252361
0.00997192395050206
0.00962223925763261
0.00928103392443269
0.00894812427813108
0.00862333032259777
-0.0182832560726265
-0.0180472581616318
-0.017814571893588
-0.0175851454122302
-0.0173589278842492
-0.0171358694767854
-0.0169159213354213
-0.016699035562624
-0.0164851651966593
-0.0162742641909546
-0.0588094777922734
-0.0577281509554091
-0.0566671964442129
-0.0556262214870262
-0.0546048411338624
-0.0536026780982279
-0.0526193626021474
-0.0516545322242923
-0.0507078317512004
-0.0497789130314938
-0.0639756086385628
-0.062771520865212
-0.0615904096263993
-0.06043182984045
-0.0592953452772669
-0.0581805283798538
-0.0570869600894373
-0.0560142296741137
-0.0549619345609411
-0.0539296801714482
-0.0689538093269295
-0.0676317329060598
-0.0663351390703877
-0.0650635322532072
-0.0638164267357233
-0.062593346448935
-0.0613938247794934
-0.0602174043794914
-0.0590636369800706
-0.0579320832088008
-0.0743271770223881
-0.0728799195843077
-0.0714607908067499
-0.070069241734581
-0.0687047343177412
-0.0673667411922434
-0.0660547454655891
-0.0647682405064938
-0.0635067297388474
-0.0622697264398209
-0.107981575508452
-0.105830212518192
-0.10372120535858
-0.101653720333427
-0.0996269403380428
-0.0976400645267361
-0.0956923079870187
-0.0937829014203118
-0.0919110908291003
-0.0900761372103389
-0.060235501450018
-0.0590469568892438
-0.0578816348543025
-0.0567390831175771
-0.0556188584084349
-0.0545205262336435
-0.0534436607014293
-0.0523878443490844
-0.0513526679740135
-0.050337730468204
-0.0428915164400596
-0.0420481321050037
-0.0412211836405412
-0.0404103535802367
-0.0396153307162077
-0.0388358099737491
-0.0380714922884628
-0.0373220844858739
-0.0365872991634735
-0.0358668545751399
-0.0325386211652674
-0.0318997825288214
-0.0312733965640906
-0.0306592245209654
-0.0300570323322482
-0.029466590519954
-0.0288876741034958
-0.0283200625097315
-0.0277635394848259
-0.0272178930078733
-0.0164305504604014
-0.0161162097015888
-0.0158079278545342
-0.0155055929967451
-0.0152090953524961
-0.0149183272500029
-0.014633183079467
-0.0143535592519726
-0.0140793541592181
-0.0138104681340643
0.0300002168344058
0.0293660477717337
0.0287447129714584
0.0281359479410002
0.0275394935670805
0.0269550960078897
0.0263825065874075
0.025821481691815
0.0252717826679802
0.0247331757239557
0.0509604150906142
0.0498948361321929
0.0488506525741066
0.0478274299138626
0.0468247424252102
0.0458421729822867
0.0448793128872307
0.043935761701281
0.0430111270791986
0.0421050246070269
0.0593188186419926
0.0580775747705609
0.0568611822376202
0.0556691384909325
0.0545009511114234
0.0533561376100913
0.0522342252289842
0.0511347507461295
0.050057260284369
0.0490013091240105
0.0846612376827007
0.0828948284327495
0.0811637318446223
0.0794672373942831
0.077804648845289
0.0761752839625398
0.0745784742317586
0.0730135645845742
0.0714799131290942
0.0699768908858829
0.091157500843229
0.0892495041298496
0.0873796184731557
0.0855470784095864
0.0837511338565839
0.0819910498044258
0.0802661060142338
0.0785755967220236
0.0769188303486654
0.0752951292156432
0.0997974320481685
0.0977029670339906
0.0956503200273886
0.0936386524411414
0.0916671425257238
0.0897349850319937
0.0878413908806213
0.0859855868381345
0.0841668151994348
0.0823843334766678
0.080304056477841
0.0785988202626999
0.0769275980214505
0.0752897078776495
0.0736844816527054
0.0721112645913706
0.0705694150926881
0.0690583044463615
0.0675773165743649
0.0661258477777373
0.0501511976094147
0.0490553205301598
0.0479812531014172
0.0469285579313024
0.0458968064306671
0.0448855786364728
0.0438944630387361
0.0429230564108973
0.0419709636436156
0.0410377975818683
0.0474690764155685
0.0464220433557454
0.0453958354085398
0.0443900354877371
0.0434042348981603
0.0424380331673149
0.0414910378803963
0.0405628645185931
0.0396531363006396
0.0387614840275301
0.016716030621799
0.0162934655862728
0.0158792270633317
0.0154731481462456
0.0150750653107075
0.0146848183466517
0.0143022502914771
0.0139272073645813
0.0135595389032197
0.0131990972996388
-0.0251916782579205
-0.0247583348570419
-0.0243337949252656
-0.0239178828196369
-0.023510426370299
-0.0231112568114966
-0.0227202087139684
-0.0223371199186868
-0.0219618314719163
-0.0215941875615684
-0.046648287489532
-0.0457744885342422
-0.0449183113581082
-0.0440794038893202
-0.0432574210620054
-0.0424520246765656
-0.0416628832627666
-0.0408896719455978
-0.0401320723137815
-0.0393897722909315
-0.0711288164093773
-0.0697506480280392
-0.0684001994249055
-0.0670769166337095
-0.0657802567358203
-0.0645096876396867
-0.0632646878646899
-0.0620447463293008
-0.0608493621434985
-0.0596780444053131
-0.0881787011926232
-0.0864462943918287
-0.0847487028300851
-0.0830852306987389
-0.0814551960770284
-0.0798579306546934
-0.0782927794601136
-0.0767591005938684
-0.075256264967658
-0.0737836560484073
-0.112087142796696
-0.109858389014136
-0.10767439156916
-0.105534256055044
-0.103437105927791
-0.101382082149193
-0.0993683428370264
-0.0973950629222191
-0.0954614338129129
-0.0935666630651859
-0.0761713823901431
-0.074670553173636
-0.0731999238202246
-0.0717588906202167
-0.070346861915862
-0.0689632578606076
-0.067607510183155
-0.0662790619562177
-0.0649773673699343
-0.063701891509778
-0.088573141708661
-0.0868130632265167
-0.0850883783541132
-0.0833983796195099
-0.0817423736803278
-0.0801196810413938
-0.0785296357780378
-0.076971585264932
-0.0754448899103402
-0.0739489228956742
-0.059490145489228
-0.0583201578201571
-0.0571737616723667
-0.0560504852670629
-0.0549498662436552
-0.0538714514716112
-0.0528147968661017
-0.0517794672072771
-0.0507650359632166
-0.04977108511636
-0.0240627282947834
-0.0236155710297137
-0.0231775419495204
-0.0227484580727086
-0.0223281400625321
-0.0219164121543178
-0.0215131020842376
-0.02111804101951
-0.0207310634899933
-0.0203520073211534
0.0080830305570343
0.00787141448415696
0.00766385787778479
0.00746028045218328
0.00726060353966584
0.00706475005799145
0.00687264447841685
0.0066842127943767
0.00649938249079618
0.00631808251399146
0.00790782461409378
0.00769714263494059
0.00749051146543867
0.0072878511267529
0.00708908324923563
0.00689413103992109
0.00670291925062472
0.00651537414668724
0.00633142347629345
0.00615099644038786
0.0480071019262152
0.0469718426626109
0.0459571475439375
0.0449626069222209
0.0439878193469365
0.043032391400363
0.0420959375361747
0.0411780799211794
0.0402784482801604
0.0393966797437262
0.0597820178895354
0.0584993017509241
0.057242120922913
0.056009966601307
0.0548023401514648
0.0536187529031693
0.05245872594943
0.0513217899491156
0.0502074849333223
0.0491153601153869
0.103575682766099
0.101388229304165
0.0992444389452825
0.097143440847054
0.0950843815489755
0.0930664246202877
0.0910887503144338
0.0891505552299208
0.087251051977475
0.0853894688532453
0.0916009404337768
0.0896482088548431
0.0877344700282148
0.0858589460028298
0.0840208742810038
0.0822195074981629
0.0804541131079919
0.078723973072762
0.0770283835586696
0.0753666546359835
0.0841829199459507
0.082372779284384
0.0805987950049829
0.0788602443125122
0.0771564185931304
0.0754866231049878
0.0738501766729023
0.0722464113868835
0.0706746723042571
0.0691343171552017
0.0581823260712522
0.0568964290122747
0.0556361883821115
0.0544010870768172
0.0531906176881805
0.0520042822554405
0.0508415920180401
0.0497020671692265
0.048585236610208
0.0474906377046533
0.050748837469003
0.0496085611950008
0.048490953829436
0.0473955486458575
0.0463218868590936
0.0452695173625663
0.0442379964645987
0.0432268876234865
0.0422357611810629
0.0412641940946514
0.0343626635041243
0.0335509270323122
0.0327550770922969
0.0319747631226939
0.0312096388311129
0.0304593619319427
0.0297235938810889
0.0290019996075053
0.028294247241595
0.0276000078403804
0.0265138364486894
0.0258539513426239
0.0252064409332267
0.0245709884931866
0.0239472787360082
0.0233349975254367
0.0227338315827001
0.0221434681919401
0.0215635949042241
0.0209938992405849
-0.0235763829776232
-0.0232244537760931
-0.0228813432607655
-0.0225470064299795
-0.0222214070021991
-0.0219045175615538
-0.0215963197022617
-0.0212968041708539
-0.0210059710050921
-0.0207238296683556
-0.0527036883346685
-0.0517778090548262
-0.0508739400252267
-0.049991865372558
-0.04913138449011
-0.0482923120097318
-0.0474744777607761
-0.0466777267142984
-0.0459019189105323
-0.0451469293677356
-0.0692112204497874
-0.0679891842293916
-0.0667978538176932
-0.0656369596193276
-0.064506250273455
-0.0634054923263054
-0.0623344698720381
-0.0612929841598078
-0.060280853164846
-0.0592979111214706
-0.0892277535810795
-0.0876696417423286
-0.0861529841884892
-0.0846774216619579
-0.0832426132481228
-0.0818482355378318
-0.0804939817411281
-0.079179560750843
-0.0779046961548762
-0.0766691251961511
-0.0940468824164142
-0.0925083890844505
-0.091016092130868
-0.0895696197723161
-0.0881686109187712
-0.0868127137502732
-0.0855015842422215
-0.084234884640356
-0.0830122818867931
-0.081833445998944
-0.088926276567058
-0.0876653107590801
-0.0864504991613586
-0.0852814396082735
-0.0841577256324584
-0.0830789445916622
-0.0820446757718614
-0.0810544884713877
-0.0801079400712865
-0.0792045740974796
-0.088619772541529
-0.0875906831744047
-0.0866075200764875
-0.0856696678375197
-0.0847764892835841
-0.0839273235930893
-0.0831214844537786
-0.0823582582687923
-0.0816369024200263
-0.0809566435972542
-0.0688124775044461
-0.0684477967459607
-0.0681169736769451
-0.0678191913778523
-0.0675535932857834
-0.0673192821373796
-0.0671153190371179
-0.0669407226593624
-0.0667944685922519
-0.0666754888312342
-0.0597641742563537
-0.0598361414663708
-0.0599291173917376
-0.0600419137018067
-0.0601732973158047
-0.0603219909584265
-0.0604866739071008
-0.0606659829346459
-0.0608585134503112
-0.0610628208413964
-0.0429088145139085
-0.0435087437705004
-0.0441083564797111
-0.0447062158913401
-0.0453008519594293
-0.0458907639463515
-0.0464744232172842
-0.0470502762200482
-0.0476167476442706
-0.0481722437528642
-0.00352462523011265
-0.00497973356014114
-0.00640047066913763
-0.00778557581389183
-0.00913378134999387
-0.0104438170448518
-0.0117144144848611
-0.0129443115626398
-0.0141322570295728
-0.01527701509821
0.00767562503191144
0.00612778073550135
0.00463655997844725
0.0032028931912329
0.0018276761018079
0.000511765107436446
-0.00074402728123335
-0.00193893690585067
-0.00307225231784702
-0.00414331900989229
0.014850588523613
0.0134956935849679
0.0122128352544424
0.011002237213587
0.00986405081472519
0.0087983518944883
0.0078051378276367
0.00688432483452939
0.006035745554688
0.00525914689786511
0.0325925045920741
0.0313839740594224
0.0302576363779643
0.0292126502238546
0.0282480868767232
0.0273629298196294
0.0265560746651374
0.0258263294089343
0.0251724150109309
0.0245929663024551
0.074601963107467
0.0731314523348923
0.0717515333200245
0.0704600979806633
0.0692549696626932
0.0681339057308703
0.0670946004408162
0.066134688080143
0.0652517463655569
0.0644433000817166
0.0629246994927648
0.0622736597060785
0.0616890909264258
0.0611683532910092
0.06070877513518
0.0603076577362556
0.0599622801765793
0.0596699043061424
0.0594277797848246
0.0592331491841591
0.0367061697788138
0.0370569794711564
0.0374378393384909
0.0378461984359344
0.0382795207646005
0.038735290386148
0.0392110164588964
0.0397042381778299
0.0402125296014244
0.0407335043491024
0.0585364268317328
0.0587217241914413
0.0589199136626686
0.059128669473246
0.0593457292834128
0.0595688977616842
0.0597960499461028
0.0600251343830767
0.060254176037132
0.0604812789661917
0.0605408272955543
0.0607620511730467
0.0609760790161662
0.0611813545432049
0.0613764102971182
0.061559868871095
0.0617304438965505
0.0618869407978764
0.0620282573193567
0.0621533838306849
0.03406750082444
0.034735560599195
0.0353733902968116
0.0359805806839528
0.0365568090322554
0.0371018383750918
0.0376155166108365
0.0380977754653777
0.038548629327078
0.0389681739678007
0.00195232533277867
0.0030766399743154
0.00415506134173782
0.00518830261168191
0.00617714460627639
0.00712243425141601
0.0080250830185431
0.00888606536398306
0.00970641717968057
0.0104872342686768
-0.0103551374026623
-0.00920738427009304
-0.00810438897196697
-0.00704465352513672
-0.00602663038632301
-0.00504872350368224
-0.00410928926661391
-0.00320663734545157
-0.00233903141366198
-0.00150468974615414
-0.054980070682543
-0.0530940350390345
-0.0512579183094566
-0.049469315816367
-0.0477257873554073
-0.0460248567950465
-0.0443640115407025
-0.042740701865684
-0.0411523401126157
-0.0395962997702952
-0.036442338146669
-0.0349762654653158
-0.0335337228478032
-0.0321119302229338
-0.0307080621767177
-0.0293192464625385
-0.0279425624571701
-0.0265750395779172
-0.0252136556772928
-0.0238553354329785
-0.0412640429329816
-0.0395176803435362
-0.0377725200123322
-0.0360251046517259
-0.0342719194535057
-0.0325093908245826
-0.0307338852740298
-0.0289417084774524
-0.0271291045452298
-0.0252922555219524
-0.0535231451230924
-0.0510091414801135
-0.0484714126578982
-0.0459056464667782
-0.0433074755333127
-0.0406724786833514
-0.0379961827578246
-0.0352740648894763
-0.03250155526813
-0.0296740404214617
-0.0219665790700247
-0.0191138736760195
-0.0161901241757754
-0.0131906259459829
-0.0101106549184511
-0.00694547447300842
-0.00369034299894544
-0.000340522139515187
0.00310871426847115
0.00666207055054713
0.0301020128708913
0.0334721397729236
0.0369683754116767
0.0405950640345356
0.0443564723892553
0.0482567757668129
0.0523000433673015
0.0564902230077813
0.060831125195449
0.065326406593929
0.0634134520900762
0.0683623646798228
0.0734728358718542
0.0787477845025784
0.0841898840098381
0.0898015431209522
0.0955848862580631
0.101541733725906
0.107673581751873
0.113981582452526
0.155089040628651
0.161041569334182
0.167185646865635
0.173520566265575
0.18004518375384
0.18675789992286
0.193656641488497
0.200738843697733
0.208001433496552
0.215440813562669
0.245047440796885
0.252376552079083
0.259877395072829
0.267543956514283
0.275369639315494
0.283347253930707
0.291469011319233
0.299726517601858
0.308110770504326
0.316612157677074
0.357974970988364
0.366007889417222
0.374138895549709
0.382355691936127
0.390645398905971
0.398994565594172
0.407389183299024
0.415814701204756
0.424256044492616
0.432697634854101
0.497071290790153
0.504317819028817
0.51153803280349
0.518714134540552
0.52582797067803
0.532861066093666
0.539794660727846
0.54660974832478
0.553287117203563
0.55980739295924
0.582720830779426
0.58852869274644
0.594127613472985
0.599497893378508
0.604619911040071
0.60947417469735
0.614041374686149
0.618302436619288
0.622238575126381
0.625831347957131
0.628908756488286
0.631764271011257
0.634223630889299
0.636270308770303
0.637888389162157
0.639062620345939
0.639778465171148
0.640022150516955
0.639780715205887
0.639042056159631
0.650484978740295
0.648459070666021
0.645910415317957
0.642830657358999
0.639212499045534
0.635049731698373
0.630337264127348
0.625071147864148
0.619248599069998
0.612868016998341
0.607980828810021
0.60044211897624
0.59234864479064
0.58370363339305
0.574511532803612
0.564778008013349
0.554509933212557
0.54371538016278
0.53240360273486
0.520585017652735
0.522551043452509
0.509461890653924
0.49590976776495
0.481909359794315
0.467476366287578
0.452627461004909
0.437380248532143
0.42175321798706
0.405765693995825
0.389437785125708
0.370909552392277
0.354002619221497
0.336819009286863
0.319381422871054
0.301713055107193
0.283837533592234
0.265778855000022
0.24756132093524
0.229209473271119
0.210748029214201
0.147720511536491
0.130026264125185
0.112278726679641
0.0945030357954977
0.0767241757386969
0.0589669170025005
0.0412557562057145
0.0236148575373463
0.00606799594457641
-0.0113614977501086
-0.0535648837472422
-0.0701809515351002
-0.0866230612441186
-0.102869958783799
-0.118901078023875
-0.134696580761869
-0.150237393797582
-0.165505243030388
-0.180482684509684
-0.195153132382899
-0.227168110807042
-0.240816191245102
-0.254120149444134
-0.267066903493053
-0.279644324734932
-0.291841246670913
-0.303647470765576
-0.315053769206393
-0.326051884681206
-0.336634527248961
-0.37876175115683
-0.387840108307557
-0.396499968444921
-0.404737562978681
-0.412550039995004
-0.419935445690435
-0.426892703677062
-0.43342159229627
-0.439522720082579
-0.445197499522692
-0.475368947781959
-0.479687469581535
-0.483598643352771
-0.487106601912302
-0.490216134549684
-0.49293265361338
-0.495262160439033
-0.497211210765009
-0.498786879777008
-0.499996726920145
-0.525479339273225
-0.525477057917307
-0.525144290935948
-0.524489981079434
-0.52352338448712
-0.522254036662936
-0.520691719047583
-0.518846426281357
-0.516728334244711
-0.514347768956924
-0.532453971316926
-0.529154745626364
-0.525633137215287
-0.521899611310872
-0.517964646357228
-0.5138387092858
-0.509532232010415
-0.505055589172116
-0.500419077151861
-0.49563289436351
-0.497684950996977
-0.492486494639039
-0.487171059898579
-0.481748224786337
-0.476227391180288
-0.470617772716665
-0.464928383894712
-0.459168030367142
-0.453345300384864
-0.447468557361059
-0.43833166822829
-0.432436951309668
-0.426510585498285
-0.420560007841768
-0.414592408224177
-0.408614727780254
-0.402633658118887
-0.396655641305735
-0.390686870554433
-0.384733291575266
-0.358099965702124
-0.352617988181571
-0.347159084181705
-0.341728403850478
-0.336330861268777
-0.330971138751799
-0.325653691459301
-0.320382752268845
-0.315162336867573
-0.309996249019616
-0.290378956740874
-0.285629550009052
-0.280938712526158
-0.276309574015059
-0.271745077489062
-0.267247984818678
-0.262820882224162
-0.258466185666251
-0.254186146110033
-0.249982854638926
-0.208883651983907
-0.205597489441562
-0.202378268223462
-0.199227790273788
-0.196147714268101
-0.193139559589774
-0.190204710054761
-0.187344417379077
-0.184559804385632
-0.181851867948804
-0.152901177050232
-0.150863275052451
-0.148892020235582
-0.146988267833439
-0.145152751975697
-0.143386087435248
-0.1416887711431
-0.140061183481825
-0.138503589370176
-0.137016139152802
-0.108543164279984
-0.107750636491167
-0.107016922619392
-0.106341941933714
-0.105725496795484
-0.105167272826671
-0.104666839010285
-0.104223647744591
-0.103837034873264
-0.103506219714003
-0.0610290167716929
-0.0616721102278159
-0.0623506474421003
-0.0630637284311515
-0.0638103306903623
-0.064589309830275
-0.0653994003665836
-0.0662392166849664
-0.0671072542012912
-0.0680018907367277
-0.0414332110000863
-0.0429392210918582
-0.0444549981633227
-0.0459786935434625
-0.0475083471760218
-0.0490418907248191
-0.0505771509964212
-0.0521118536890732
-0.0536436274751146
-0.0551700084220919
-0.0270268800946756
-0.0291427956138524
-0.0312332512699722
-0.0332957067879356
-0.0353275516643414
-0.037326111719489
-0.0392886559673542
-0.041212403792521
-0.0430945324210583
-0.0449321846701007
-0.0529895288032236
-0.0546010856409236
-0.0561620405197694
-0.057669429705669
-0.0591202983433909
-0.0605117094311325
-0.0618407529152964
-0.0631045548762188
-0.0643002867743423
-0.0654251747250498
-0.0952566409906712
-0.0956417952756698
-0.0959600117078665
-0.0962085913928306
-0.0963849404404371
-0.0964865786068732
-0.0965111477263303
-0.0964564198972759
-0.0963203053886641
-0.0961008602319318
-0.0897253842092329
-0.0894585176113551
-0.0891009428983871
-0.0886514173805093
-0.0881088752533632
-0.0874724326645104
-0.0867413922582294
-0.0859152471756666
-0.0849936844894579
-0.0839765880541457
-0.130730847808319
-0.128541869738813
-0.126277847419374
-0.123939075968879
-0.121526060137109
-0.119039513239644
-0.116480355451937
-0.113849711464807
-0.111148907506452
-0.108379467738862
-0.115697158510178
-0.112587632947292
-0.109419352284204
-0.106194501108266
-0.102915436668183
-0.0995846817995885
-0.0962049173546378
-0.092778974163517
-0.0893098245577928
-0.0858005734873952
-0.111509687584592
-0.107330303622248
-0.103132836791835
-0.0989205870779983
-0.0946969425876887
-0.0904653688831534
-0.086229398170472
-0.0819926183838273
-0.0777586622059099
-0.0735311960647991
-0.0965083232207915
-0.0917474345100668
-0.0870152848247807
-0.0823153436692188
-0.0776510647674948
-0.0730258756525108
-0.0684431674991322
-0.063906285235019
-0.0594185179609692
-0.0549830897108503
-0.073831073622574
-0.0690335218163343
-0.0643070334905218
-0.0596542974466985
-0.0550779010367046
-0.0505803234051587
-0.0461639292264762
-0.0418309629492226
-0.0375835435582763
-0.0334236598628497
-0.0510529384019582
-0.0466287088850335
-0.0423060638538564
-0.038086257180586
-0.033970400563538
-0.0299594619383035
-0.0260542644083008
-0.0222554856851005
-0.0185636580269639
-0.0149791686622303
-0.0342104847564038
-0.0303757427551874
-0.0266579580057726
-0.0230567649458138
-0.0195716655161124
-0.0162020320533207
-0.0129471105355696
-0.00980602415780485
-0.0067777772129114
-0.00386125925418757
0.00450722985478258
0.0070900276923096
0.00956735305960166
0.0119406834085547
0.0142115876824471
0.0163817209717418
0.018452819063234
0.0204266929065344
0.0223052230213119
0.0240903538680923
0.0232609524234642
0.0249170696311509
0.0264849130753397
0.0279666473857914
0.029364472770034
0.0306806196069438
0.0319173431392592
0.0330769182802877
0.0341616345489699
0.0351737911463115
0.0460887886237114
0.0467582913118854
0.0473662347102106
0.0479148290216509
0.0484062736418327
0.0488427532592386
0.0492264341562096
0.049559460714681
0.0498439521295699
0.0500819993317085
0.0767401772943082
0.0763489624864402
0.075928236387476
0.07547973348718
0.075005152107547
0.0745061524859825
0.0739843550589461
0.0734413389415973
0.0728786405984376
0.0722977526994724
0.083088060011451
0.0822416399259751
0.0813859087568778
0.0805220827516484
0.0796513330710589
0.0787747855837795
0.0778935207989635
0.0770085739290778
0.0761209350752079
0.0752315495270137
0.132681871450629
0.130595677340956
0.128534242878805
0.126497861154397
0.124486792954349
0.122501267397356
0.120541482635822
0.118607606616461
0.116699777893155
0.114818106485597
0.136754484647751
0.134437619239199
0.132156839968175
0.129911957084625
0.127702760973733
0.125529023090024
0.123390496901015
0.121286918836148
0.119218009237041
0.117183473305301
0.155769356509138
0.152970612548566
0.150221927343431
0.147522622334336
0.144872015064875
0.142269419919824
0.139714148845243
0.137205512048864
0.134742818679253
0.132325377482523
0.1388481561552
0.136336787200875
0.133872249983733
0.131453784844091
0.129080636093276
0.12675205249038
0.12446728769328
0.122225600683931
0.120026256168059
0.11786852494946
0.106495401948782
0.104608488461571
0.102757243160138
0.100941040323839
0.0991592603179701
0.0974112898552679
0.0956965222350572
0.0940143575607664
0.0923642029365581
0.0907454726438814
0.128680043348316
0.126312228733246
0.123990340314165
0.121713498672152
0.11948083865059
0.117291509298603
0.115144673802646
0.113039509407013
0.11097520732396
0.108950972634181
0.0931924658540559
0.0915283923113908
0.0898964327512441
0.0882959594079615
0.0867263555086595
0.0851870151747285
0.0836773433172109
0.082196755526601
0.0807446779575773
0.0793205472092122
0.0785780367397741
0.0771947390237493
0.075838027738758
0.0745073746291371
0.0732022613398176
0.0719221792764628
0.0706666294640037
0.0694351224038812
0.068227177930293
0.0670423250657457
0.0343313775542242
0.0338380758436934
0.0333535633155115
0.0328776627690281
0.0324102002983828
0.0319510052520222
0.0314999101908668
0.0310567508454014
0.0306213660717383
0.0301935978069601
-0.0134623448854967
-0.0129890171823348
-0.0125262669739428
-0.0120738862349405
-0.0116316711736708
-0.0111994221372811
-0.0107769435197049
-0.0103640436722685
-0.00996053481689785
-0.00956623296176318
-0.0383652853853818
-0.0373905852854932
-0.0364365352759037
-0.0355027266089145
-0.0345887587160583
-0.0336942390407025
-0.0328187828743438
-0.0319620131965479
-0.0311235605183704
-0.0303030627292031
-0.04532220954761
-0.0442122140679935
-0.0431256210823321
-0.0420619668991442
-0.0410207970797565
-0.0400016662518858
-0.039004137927094
-0.0380277843220007
-0.0370721861831953
-0.0361369326157472
-0.0580165418939718
-0.0566534843982165
-0.0553189391175639
-0.0540123401900825
-0.0527331330408813
-0.051480774155868
-0.0502547308601038
-0.0490544811006011
-0.0478795132335268
-0.0467293258156847
-0.0772673465316753
-0.0755161491488696
-0.0738012775007846
-0.0721220095268471
-0.0704776375737524
-0.068867468107106
-0.067290821428859
-0.0657470314003863
-0.0642354451711427
-0.0627554229127352
-0.0751594769209287
-0.0734567263131556
-0.0717893791305695
-0.070156731582582
-0.0685580939187016
-0.0669927901476157
-0.0654601577618958
-0.0639595474682029
-0.0624903229229101
-0.0610518604729897
-0.064660774628809
-0.0631791624186331
-0.0617285733407549
-0.0603083909104498
-0.05891801093588
-0.0575568412721665
-0.056224301580345
-0.0549198230911809
-0.0536428483736788
-0.05239283110825
-0.0524663035960256
-0.0512420158907805
-0.050043643281084
-0.0488706710872329
-0.0477225948854976
-0.0465989203029373
-0.0454991628162951
-0.0444228475549551
-0.0433695091078086
-0.0423386913339989
-0.00714252380681124
-0.00685625294961056
-0.00657716240205986
-0.00630511137843293
-0.00603996187087041
-0.0057815785937656
-0.00552982892928
-0.00528458287393363
-0.00504571298626288
-0.00481309433554777
0.00204166119612914
0.00212626376889347
0.00220769464117687
0.00228601488908176
0.00236128440542061
0.0024335619234126
0.00250290503992012
0.00256937023820925
0.00263301291025897
0.00269388737862464
0.0277737948273593
0.0273163490321675
0.0268665572144329
0.026424264629787
0.025989319666996
0.0255615737853212
0.025140881453126
0.0247271000877234
0.0243200899964044
0.0239197143186569
0.0516161085812268
0.0506527552380867
0.0497071664687034
0.0487789860471999
0.0478678649102804
0.0469734610139696
0.0460954391932269
0.0452334710243836
0.0443872346903031
0.0435564148482577
0.0962394469754262
0.0943418218779737
0.0924806531944267
0.0906552119037336
0.0888647836026113
0.0871086682131725
0.0853861796963944
0.08369664577131
0.082039407639833
0.0804138197170676
0.0912894336818368
0.0894696237644439
0.0876847199792916
0.0859340248374387
0.0842168548366455
0.0825325401816119
0.0808804245097896
0.0792598646227081
0.0776702302226386
0.076110903654552
0.0951629695585954
0.0932405329728585
0.0913550684469673
0.0895058377953024
0.0876921176322227
0.085913199076014
0.0841683874587691
0.0824570020420445
0.0807783757382268
0.0791318548374633
0.0951853278335726
0.0932389061862899
0.0913299551172919
0.0894577270491972
0.087621489391676
0.0858205242416332
0.0840541280893952
0.0823216115307908
0.0806222989849594
0.0789555284178292
0.0782297414496576
0.0766074853379735
0.0750162366636644
0.0734553774753657
0.0719243022155389
0.0704224174725283
0.0689491417375763
0.0675039051666673
0.0660861493471856
0.0646953270691917
0.0642141692195644
0.062857509225605
0.0615265685094464
0.0602208352384856
0.0589398078507912
0.057682994849614
0.0564499146020161
0.0552400951414853
0.0540530739745329
0.052888397891163
0.0360791074336255
0.035278959670233
0.034493423880388
0.0337222105204944
0.0329650358712144
0.0322216219209004
0.0314916962513472
0.0307749919258278
0.0300712473794036
0.0293802063113731
0.00587188118721116
0.00567350540138278
0.00547772861043327
0.00528450157818483
0.00509377608598527
0.0049055049122515
0.00471964181248552
0.00453614149959947
0.00435495962471677
0.00417605275828947
-0.0198709802547334
-0.0195561244886946
-0.0192489117188686
-0.0189491863124971
-0.0186567957172485
-0.0183715903997026
-0.0180934237850465
-0.0178221521980149
-0.0175576348049589
-0.0172997335571168
-0.0366180211799474
-0.0359717724105373
-0.0353397704638674
-0.0347217275541567
-0.0341173616197565
-0.033526396208746
-0.0329485603668331
-0.0323835885274804
-0.031831220404257
-0.0312912008853061
-0.0880802012354067
-0.086389144168912
-0.0847332152251141
-0.0831117093885716
-0.081523935712724
-0.0799692170385775
-0.0784468897190536
-0.0769563033488119
-0.0754968204995023
-0.0740678164603032
-0.0808266978542242
-0.0792895885563709
-0.0777845046313708
-0.0763108029088322
-0.0748678530510354
-0.0734550372963589
-0.0720717502078472
-0.070717398426801
-0.0693914004312859
-0.0680931862995031
-0.102831228396045
-0.10084873691342
-0.0989071598925406
-0.0970056765226026
-0.0951434823786581
-0.0933197890939894
-0.0915338240390184
-0.0897848300066393
-0.0880720649038533
-0.0863948014495737
-0.120911579473791
-0.118561935162287
-0.116260531284079
-0.114006400655784
-0.111798595407684
-0.109636186597518
-0.107518263832002
-0.105443934895936
-0.103412325388714
-0.101422578368108
-0.0704687172773522
-0.0691547941157094
-0.0678683642657845
-0.0666088748315516
-0.0653757839460507
-0.0641685605508862
-0.0629866841801494
-0.0618296447486664
-0.0606969423444692
-0.059588087025416
-0.0432763123630888
-0.0425258572083056
-0.0417915904245305
-0.0410731847419346
-0.0403703194083551
-0.0396826800590322
-0.0390099585889789
-0.0383518530278675
-0.0377080674174568
-0.0370783116914453
-0.0197963375403774
-0.019535444510435
-0.0192809079765048
-0.0190325968276071
-0.0187903825484934
-0.018554139167863
-0.0183237432075742
-0.0180990736329125
-0.0178800118038271
-0.0176664414271546
0.0040398902594454
0.00380210834326178
0.00356799005908215
0.00333746664065693
0.00311047072210791
0.00288693630981207
0.00266679875481657
0.00244999472583274
0.00223646218274531
0.00202614035067583
0.0250080252756142
0.0243285747822473
0.0236616735527591
0.023007075639665
0.0223645400379162
0.0217338305859158
0.021114715868503
0.020506969121902
0.0199103681405415
0.0193246951857642
0.0339361702512484
0.0330603976015489
0.0322011560615589
0.031358120463171
0.0305309721635343
0.0297193989144127
0.0289230947341412
0.0281417597821516
0.0273751002359965
0.0266228281708489
0.0803939953032327
0.0785522230098472
0.0767463716292713
0.0749757290832314
0.0732395975547266
0.0715372932026401
0.0698681458820563
0.068231498870162
0.0666267085976493
0.0650531443854625
0.0699881433867287
0.0683423922758752
0.066728707620479
0.0651464547010114
0.0635950115102766
0.0620737684989923
0.0605821283264625
0.059119505616227
0.0576853267166104
0.056279029466042
0.0858626419280331
0.0838757373714341
0.081927797345271
0.0800180497227299
0.078145737835321
0.0763101201635603
0.0745104700337684
0.0727460753210014
0.0710162381578634
0.0693202746491917
0.0850214407993786
0.0830352691295335
0.0810881242149009
0.0791792330483858
0.0773078380967611
0.0754731969909876
0.0736745822227363
0.0719112808469866
0.0701825941905696
0.0684878375665257
0.0613901549813889
0.0598727000141182
0.0583849719160234
0.0569263837390679
0.0554963602860106
0.0540943378752345
0.0527197641102113
0.0513720976536334
0.0500508080060165
0.0487553752887493
0.049259246735275
0.0479776437805945
0.0467211275239734
0.0454892039525667
0.0442813889436877
0.0430972080668148
0.041936196389539
0.0407978982874226
0.0396818672576202
0.0385876657362871
0.0168462232700364
0.0162181074663295
0.0156020808281632
0.0149979091281942
0.0144053628318481
0.0138242170032541
0.0132542512131124
0.0126952494483561
0.0121470000236528
0.0116092954946261
0.0218985869652002
0.0211596263943754
0.0204350506291462
0.0197245797366854
0.0190279393890123
0.0183448607506804
0.0176750803687611
0.0170183400649933
0.0163743868300834
0.0157429727201475
-0.0440920018669644
-0.0434851442658122
-0.0428907558708644
-0.0423085802132199
-0.0417383659483264
-0.0411798667536836
-0.0406328412285433
-0.0400970527956837
-0.0395722696050882
-0.0390582644395963
-0.0598945608220731
-0.0589639860404993
-0.0580522893545634
-0.0571590863388423
-0.0562840002528553
-0.055426661887541
-0.0545867094147958
-0.0537637882400226
-0.0529575508576343
-0.0521676567094289
-0.0857548586400796
-0.0842922584749033
-0.0828591171531095
-0.0814548390308367
-0.0800788403747745
-0.078730549124117
-0.0774094046572387
-0.0761148575630948
-0.0748463694171697
-0.073603412561873
-0.0990107831625622
-0.0972715323729787
-0.0955672156689662
-0.093897128214552
-0.0922605792693805
-0.090656891906935
-0.089085402738414
-0.0875454616421223
-0.0860364314982771
-0.0845576879291237
-0.104061780598311
-0.102212249595475
-0.100399802205036
-0.0986236908549145
-0.096883182924552
-0.0951775604460359
-0.0935061198111775
-0.091868171484462
-0.0902630397217283
-0.0886900622944964
-0.0956123140556802
-0.0939282060679947
-0.0922778164754181
-0.0906604651219709
-0.0890754854561617
-0.0875222242590361
-0.0860000413776696
-0.0845083094639776
-0.083046413718753
-0.0816137516408251
-0.0779846478585693
-0.0766543075378472
-0.0753505518724022
-0.0740728433733988
-0.0728206553045307
-0.0715934714671036
-0.0703907859894279
-0.0692121031204085
-0.0680569370272632
-0.0669248115972891
-0.0898288372325542
-0.0882491274266641
-0.086700938148951
-0.0851836335234246
-0.0836965903953999
-0.0822391980771879
-0.0808108580988876
-0.0794109839641486
-0.0780390009108327
-0.0766943456764473
-0.0384857031328547
-0.0379503145595326
-0.0374254959416689
-0.0369110300023223
-0.0364067038156026
-0.0359123087197641
-0.0354276402320739
-0.0349524979653566
-0.0344866855462129
-0.0340300105348863
-0.0104612812594436
-0.0104962967133702
-0.0105304094613654
-0.0105636314550566
-0.0105959744141693
-0.0106274498313024
-0.0106580689766034
-0.0106878429023602
-0.0107167824474956
-0.0107448982419669
0.00863579564958705
0.00821143482157716
0.00779582938664447
0.00738881050177476
0.00699021269206668
0.00659987378323912
0.00621763483547255
0.00584334007857912
0.005476836848473
0.00511797552491799
0.0212025668947682
0.0205216173562981
0.0198546215356803
0.0192013067328016
0.018561405691214
0.0179346564891194
0.0173208024325326
0.01671959195059
0.016130778492947
0.0155541204292255
0.0871134792283179
0.0850818914000353
0.0830913522388297
0.0811410479270993
0.0792301809109226
0.0773579695746349
0.0755236479218944
0.0737264652631584
0.0719656859093689
0.070240588871803
0.0710331179580912
0.0693263859056383
0.0676542770246069
0.0660161059042608
0.0644112008278253
0.0628389034984487
0.0612985687706562
0.0597895643871666
0.0583112707209796
0.0568630805226196
0.0919466600132601
0.0898086115592349
0.0877138920488036
0.0856616422574152
0.0836510201287641
0.0816812004312784
0.0797513744214591
0.0778607495139596
0.0760085489582725
0.07419401152187
0.0777681052095058
0.0759169613820543
0.0741034826032507
0.0723269228231036
0.0705865508947472
0.0688816502762304
0.0672115187382687
0.0655754680778351
0.0639728238374779
0.0624029250302662
0.0750927999331825
0.0732947960196473
0.07153346977673
0.0698080948922613
0.0681179595607535
0.0664623661931163
0.0648406311321725
0.0632520843738789
0.0616960692941024
0.0601719423808884
0.0428821699288289
0.0417437744600271
0.0406289318624538
0.0395371779223925
0.0384680576895597
0.0374211252917007
0.0363959437528916
0.0353920848154701
0.0344091287655424
0.0334466642619571
0.0210065467009439
0.020319566162172
0.0196471746621789
0.0189890869072773
0.0183450232875941
0.0177147097632879
0.017097877753006
0.0164942640245958
0.0159036105879906
0.0153256645902466
-0.00264493261441956
-0.00284139969664743
-0.00303302871228794
-0.00321991037679403
-0.00340213361437769
-0.00357978559394923
-0.00375295176433532
-0.00392171588879364
-0.0040861600788471
-0.00424636482741469
-0.0313992315078195
-0.0309977611092798
-0.0306033590697297
-0.0302158785454338
-0.029835175653357
-0.0294611094120576
-0.029093541683741
-0.0287323371174981
-0.0283773630936519
-0.0280284896692358
-0.0555506309517124
-0.0546423495292974
-0.0537512263156401
-0.0528769132569344
-0.0520190692848743
-0.0511773601770109
-0.0503514584199305
-0.049541043075136
-0.0487457996476479
-0.0479654199571957
-0.0922300926879682
-0.0905554212239323
-0.0889131997961279
-0.0873027753183369
-0.0857235077906875
-0.0841747700379685
-0.0826559474531976
-0.0811664377463313
-0.0797056506979619
-0.0782730079179785
-0.0912367502450628
-0.0895641482399423
-0.0879239189113843
-0.0863154111466073
-0.0847379868800768
-0.0831910208325937
-0.0816739002556233
-0.0801860246807315
-0.0787268056740125
-0.0772956665954556
-0.105529906783914
-0.103545671187986
-0.101600013253776
-0.0996921583868797
-0.0978213475098073
-0.095986836751683
-0.0941878971441454
-0.0924238143233094
-0.0906938882377197
-0.0889974328621204
-0.115549535844616
-0.11333959902781
-0.11117273201816
-0.109048070978544
-0.10696476937351
-0.104921997623245
-0.102918942764488
-0.1009548081182
-0.0990288129638888
-0.0971401922204596
-0.0837045704028014
-0.0821259270933901
-0.0805777013949776
-0.0790592826209568
-0.0775700723236152
-0.0761094840493701
-0.0746769430988952
-0.0732718862920319
-0.0718937617374191
-0.070542028606722
-0.054567860722825
-0.0535676193158423
-0.0525862014279266
-0.0516232283252229
-0.0506783288739641
-0.049751139388448
-0.0488413034821029
-0.0479484719214902
-0.0470723024832473
-0.0462124598138978
-0.0329628449331008
-0.032388993252404
-0.0318254125499173
-0.0312718952433801
-0.0307282379277449
-0.0301942412916176
-0.0296697100353995
-0.0291544527910315
-0.0286482820433722
-0.0281510140531367
-0.00763688349189273
-0.00756740647986476
-0.00749808722165035
-0.00742892040751464
-0.0073599008596954
-0.00729102352975985
-0.00722228349601295
-0.00715367596095007
-0.00708519624878079
-0.00701683980297929
0.0225149091353778
0.0219790340145387
0.0214551363000481
0.0209429787049817
0.0204423286620656
0.0199529582292843
0.0194746439973823
0.0190071669992147
0.0185503126209063
0.018103870514798
0.0439220316174467
0.04295031836444
0.0419992576899926
0.041068438234749
0.0401574568352103
0.0392659183597921
0.0383934355481514
0.0375396288537502
0.0367041262895498
0.035886563276792
0.0778442869177152
0.0761850106590423
0.0745601649665613
0.0729690631350906
0.0714110321614374
0.0698854124703274
0.0683915576458247
0.0669288341681025
0.065496621155507
0.064094310111761
0.0912928909449437
0.0893628927697439
0.0874727647081617
0.0856217112946904
0.0838089529403749
0.0820337256152559
0.0802952805371522
0.0785928838666852
0.0769258164083908
0.0752933733178036
0.0771918066575594
0.0755548668595907
0.0739519548152803
0.0723823916206747
0.0708455119168292
0.0693406636188758
0.067867207650524
0.0664245176838669
0.0650119798843907
0.0636289926610871
0.0753157702687037
0.0737227923573212
0.0721629814035385
0.0706356755487434
0.0691402261380514
0.0676759974562131
0.066242366468801
0.0648387225685703
0.0634644673269129
0.0621190142502552
0.0686147057158486
0.0671649802304781
0.0657455720022906
0.0643558759280047
0.0629952989727016
0.0616632599284461
0.0603591891777349
0.0590825284616727
0.0578327306527981
0.0566092595324363
0.0507671392602482
0.0496899660507495
0.0486356687349883
0.0476037906420483
0.0465938842007088
0.0456055107574187
0.0446382403979744
0.0436916517726988
0.0427653319251746
0.0418588761243637
0.0168936782194393
0.0165193686361658
0.0161538783080868
0.0157970310621565
0.0154486542153656
0.0151085785049663
0.0147766380200736
0.014452670134645
0.014136515441793
0.0138280176894234
0.00465850592478745
0.00454666909002555
0.00443840034714071
0.00433362810326088
0.00423228216424043
0.00413429370668794
0.0040395952505996
0.00394812063249894
0.0038598049791343
0.00377458468171454
-0.0192495342254411
-0.0188584430227081
-0.0184738521066965
-0.018095632316415
-0.0177236571066697
-0.0173578024956988
-0.0169979470138717
-0.0166439716533997
-0.0162957598190641
-0.0159531972799183
-0.047807664264246
-0.0468161453454652
-0.0458431536220978
-0.0448883201166197
-0.0439512832627909
-0.0430316887573614
-0.0421291894147764
-0.0412434450247439
-0.0403741222126826
-0.0395208943029459
-0.0548661972199014
-0.0537124607736015
-0.0525805172039373
-0.0514699327344097
-0.0503802822949702
-0.0493111493478349
-0.0482621257167573
-0.0472328114197378
-0.0462228145050574
-0.045231750890613
-0.0873711613947936
-0.0855330540043191
-0.0837304604141256
-0.0819626732680074
-0.0802289993865344
-0.078528759483417
-0.0768612878875636
-0.0752259322706763
-0.0736220533803085
-0.0720490247782575
-0.0923838812032045
-0.0904222348265389
-0.0884986092911308
-0.0866122476626519
-0.0847624081738978
-0.08294836392135
-0.0811694025677916
-0.0794248260508859
-0.0777139502975697
-0.0760361049441656
-0.0860270202934039
-0.0841747336606442
-0.0823583198196527
-0.0805770652205933
-0.0788302706118653
-0.0771172507540285
-0.0754373341394334
-0.0737898627174935
-0.0721741916254093
-0.0705896889243132
-0.0839043953066216
-0.0820755783387401
-0.0802822089424584
-0.0785235825233066
-0.0767990086045973
-0.0751078105449494
-0.0734493252614481
-0.0718229029583703
-0.0702279068612963
-0.068663712956571
-0.0489389164570664
-0.0478074136183739
-0.0466974520159589
-0.0456086052106226
-0.0445404553168327
-0.0434925928315106
-0.0424646164662761
-0.0414561329830168
-0.0404667570327621
-0.0394961109977796
-0.0150977699561743
-0.0146441221987512
-0.0141984973842995
-0.0137607393929464
-0.0133306952511365
-0.0129082150685917
-0.0124931519765248
-0.0120853620670793
-0.0116847043339963
-0.0112910406144557
0.00659447202174945
0.00661582983131304
0.00663777063614113
0.00666027841982952
0.0066833374633859
0.00670693233939801
0.00673104790633339
0.00675566930294025
0.0067807819427621
0.00680637150876962
0.0383696974149981
0.0377496888349018
0.0371430542706737
0.0365495220515299
0.0359688259180135
0.0354007049138882
0.0348449032801774
0.0343011703513483
0.033769260453564
0.0332489328049554
0.0512748282362718
0.0503969992019861
0.0495376625710122
0.0486964443182476
0.0478729778779492
0.0470669039946632
0.0462778705771374
0.0455055325551506
0.0447495517392102
0.0440095966830594
0.0616161426733282
0.0605314920264881
0.0594694323169005
0.0584295075691443
0.057411270907096
0.0564142843720834
0.0554381187446342
0.05448235336981
0.0535465759860365
0.0526303825573606
0.0741411100140219
0.0728035487940453
0.0714936001399948
0.0702107077239837
0.0689543263253647
0.0677239216086942
0.0665189699061433
0.0653389580042596
0.0641833829349938
0.0630517517709048
0.106938080767017
0.104930516274511
0.102963934597016
0.101037512369546
0.0991504426756382
0.097301934718514
0.0954912134987715
0.0937175194985507
0.0919801083719971
0.0902782506419406
0.104666272943454
0.102704265257598
0.100782295544269
0.0988995593507962
0.0970552682956374
0.0952486497470701
0.0934789465082932
0.0917454165088305
0.0900473325021114
0.0883839817690966
0.0812846744692539
0.0798008429180452
0.0783474466553677
0.0769238730401192
0.0755295216672227
0.0741638041230068
0.0728261437454805
0.0715159753894241
0.0702327451961509
0.068975910367886
0.0693529448837307
0.0681143516173108
0.0669012491992493
0.0657131237339978
0.0645494715881902
0.063409799185516
0.0622936228056883
0.0612004683874314
0.0601298713354161
0.0590813763310507
0.0321817262662929
0.0317064949206163
0.0312414389166094
0.0307863501969603
0.0303410248512339
0.0299052630330703
0.0294788688790177
0.0290616504289982
0.0286534195483679
0.0282539918515283
0.0103875112275578
0.0103634004900872
0.0103403919652205
0.0103184587052159
0.0102975742884954
0.0102777128092448
0.0102588488672328
0.0102409575578228
0.010224014462203
0.0102079956377921
0.00149448291965548
0.00165855865397901
0.00181992099429706
0.00197861907546049
0.00213470103826374
0.00228821404944668
0.0024392043213215
0.0025877171309947
0.00273379683921426
0.00287748690881529
-0.0335676078135396
-0.0326785528093065
-0.0318067722090216
-0.0309519262172344
-0.0301136818439236
-0.0292917127682379
-0.0284856992049782
-0.0276953277737189
-0.0269202913705779
-0.0261602890425223
-0.0738487842553432
-0.0721250853155126
-0.0704354237027243
-0.0687791250500265
-0.0671555284852037
-0.0655639863607256
-0.0640038639890648
-0.0624745393833592
-0.0609754030032175
-0.0595058575056182
-0.0728742361153198
-0.0711585469776619
-0.0694768029653421
-0.0678283318049573
-0.0662124746741206
-0.0646285859322742
-0.0630760328568751
-0.0615541953848773
-0.0600624658593532
-0.0586002487812216
-0.103343955813584
-0.100992402017335
-0.0986875892752455
-0.0964285900137209
-0.0942144952138779
-0.092044414040263
-0.0899174734770085
-0.0878328179712469
-0.0857896090836707
-0.0837870251460782
-0.0712033072121017
-0.0694973017845637
-0.0678251962557503
-0.0661863197680397
-0.0645800148824875
-0.0630056373102867
-0.0614625556495749
-0.0599501511275093
-0.0584678173475197
-0.0570149600415846
-0.059233021158466
-0.057762720265897
-0.0563216775876025
-0.0549093151518143
-0.0535250665458733
-0.0521683766848664
-0.050838701584885
-0.0495355081408313
-0.0482582739086492
-0.047006486891938
-0.0551717658094315
-0.0537768407071457
-0.0524097406561879
-0.051069916452656
-0.0497568298744646
-0.0484699534615221
-0.0472087703003066
-0.0459727738127516
-0.0447614675493586
-0.0435743649864353
-0.0344977344728878
-0.0335198391725786
-0.0325614990987511
-0.0316223303153436
-0.0307019565610176
-0.029800009095494
-0.0289161265489462
-0.0280499547744206
-0.0272011467031898
-0.0263693622030114
0.0251483657599856
0.0249076989121697
0.0246717899000544
0.0244405370729197
0.0242138408181809
0.0239916035207806
0.0237737295234126
0.0235601250875224
0.0233506983550917
0.0231453593111919
0.0546934230741201
0.0538451378180635
0.0530137064056522
0.0521987857167847
0.0514000395000842
0.050617138235669
0.0498497590006846
0.0490975853375044
0.0483603071245753
0.0476376204498532
0.0613650698177572
0.0603747457700816
0.0594040599996237
0.0584526139459633
0.0575200170275139
0.0566058864821031
0.0557098472107178
0.0548315316243908
0.0539705794941447
0.053126637803933
0.0793665038396973
0.0780006791183716
0.0766619522012046
0.0753497757544572
0.0740636133997796
0.0728029394952365
0.0715672389207018
0.0703560068675699
0.0691687486326451
0.0680049794161768
0.0872364781287267
0.0857006425593951
0.0841952569876394
0.0827197073806598
0.0812733919960884
0.0798557211362869
0.0784661169075989
0.0771040129843765
0.0757688543777508
0.0744600972090197
0.11345836291928
0.111375061777323
0.109333120638905
0.107331707872085
0.105370008488038
0.103447223808303
0.101562571138688
0.0997152834496866
0.0979046090632973
0.0961298113461009
0.100262025519823
0.0984364575964936
0.0966470527187937
0.094893083376169
0.0931738366197532
0.0914886137712507
0.0898367301376233
0.0882175147314879
0.086630309997112
0.0850744715418887
0.0780419259351746
0.0766598400623
0.0753050041818994
0.0739768690959473
0.0726748966029689
0.0713985592782116
0.0701473402582096
0.0689207330296746
0.067718241222579
0.0665393784073984
0.0702522092291105
0.0690193794029419
0.0678107743227798
0.0666259054861875
0.0654642941743404
0.0643254712564136
0.0632089769979487
0.0621143608730215
0.0610411813801548
0.0599890058619401
0.0565258681325318
0.0555642833932986
0.0546214584065474
0.053697014079507
0.0527905789158147
0.0519017888636704
0.0510302871670625
0.0501757242199119
0.0493377574231886
0.0485160510448779
0.016213337665878
0.0160688549482906
0.0159267433677499
0.015786951364344
0.0156494284252453
0.0155141250638806
0.015380992799507
0.015249984137192
0.0151210525482028
0.0149941524507788
-0.00809546877185596
-0.00774766534207671
-0.0074073831678092
-0.0070744760814172
-0.00674880082141271
-0.00643021697424828
-0.00611858691726042
-0.00581377576272502
-0.00551565130307807
-0.00522408395719509
-0.0462314372509418
-0.0451061148236995
-0.0440039166544715
-0.0429243848492362
-0.0418670706531188
-0.0408315342674754
-0.0398173446706522
-0.0388240794423602
-0.0378513245915073
-0.0368986743875332
-0.0628899846381259
-0.0614244149804541
-0.0599888266438668
-0.0585826247332868
-0.0572052262313427
-0.0558560597606856
-0.0545345653511013
-0.0532401942112095
-0.0519724085048239
-0.0507306811317001
-0.0638029121754435
-0.0623188513160002
-0.0608651917412324
-0.0594413301262122
-0.0580466751909974
-0.0566806474596078
-0.0553426790238554
-0.0540322133118387
-0.0527487048611306
-0.0514916190964776
-0.0821406827378759
-0.0802813399962474
-0.0784599585671266
-0.0766757840986987
-0.074928077303138
-0.0732161136551994
-0.0715391830968564
-0.0698965897478434
-0.0682876516219668
-0.0667117003491349
-0.071950392228219
-0.0702994261383747
-0.0686823033004149
-0.0670983515717634
-0.0655469122283936
-0.064027339696354
-0.0625390012886378
-0.061081276947343
-0.0596535589909699
-0.0582552518667807
-0.0612510813141665
-0.0598203682144618
-0.0584191405697077
-0.0570468131991344
-0.0557028126001065
-0.0543865767144691
-0.0530975546995265
-0.0518352067036414
-0.050599003646294
-0.0493884270025635
-0.04912766418669
-0.0479478698237283
-0.0467925869074843
-0.0456613294891639
-0.0445536213124029
-0.0434689956192944
-0.0424069949603396
-0.0413671710081527
-0.0403490843749346
-0.039352304433578
-0.0164530615414549
-0.0159470631123551
-0.0154521360534492
-0.0149680626764557
-0.0144946296195752
-0.0140316277608754
-0.0135788521334099
-0.0131361018420204
-0.0127031799818234
-0.0122798935583024
0.00624349137162916
0.00627682728677748
0.0063085136803771
0.00633858030425927
0.00636705634314438
0.00639397042603917
0.00641935063745258
0.00644322452834345
0.00646561912687815
0.00648656094896261
0.0203383869082678
0.0200729401116249
0.0198117919563021
0.0195548536843848
0.0193020383416052
0.0190532607413303
0.0188084374292874
0.0185674866489762
0.018330328307778
0.0180968839437465
0.069928910468839
0.0686354040565824
0.0673667445763027
0.0661224332353729
0.064901981245475
0.0637049096225475
0.0625307489907598
0.0613790393903724
0.0602493300894782
0.0591411793994698
0.0719113230540582
0.0705609295979936
0.0692365071961873
0.0679375350312501
0.0666635027308278
0.0654139101587408
0.0641882672102927
0.06298609361167
0.061806918723363
0.0606502813474972
0.0735497275375074
0.0721491232434985
0.0707754852345648
0.0694282732504625
0.068106957864984
0.0668110202692773
0.0655399520595381
0.0642932550289235
0.0630704409636422
0.0618710314430952
0.109624297027271
0.107467246091726
0.105352295165833
0.103278602208597
0.101245342048234
0.0992517060447824
0.0972969017594636
0.0953801526306712
0.0935006976564168
0.0916577910831435
0.0898195334495071
0.0880481848458707
0.0863112230665415
0.0846079606177206
0.0829377237838642
0.0812998523521102
0.0796936993422221
0.0781186307419439
0.0765740252476057
0.0750592740099663
0.101903808703764
0.0998662260281762
0.0978683659944721
0.0959094350260763
0.093988655445866
0.0921052651581888
0.0902585173372117
0.0884476801214902
0.0866720363146705
0.0849308830921736
0.0481608689424746
0.0472054246020477
0.0462680609548869
0.0453484171086309
0.044446139416916
0.043560881334507
0.0426923032751994
0.0418400724726595
0.0410038628440041
0.0401833548561044
0.02049203670515
0.0200891636193994
0.0196933233279175
0.0193043759440634
0.0189221844071632
0.0185466144260253
0.0181775344234936
0.0178148154821649
0.0174583312911949
0.017107958094126
0.00637353343776681
0.00624801544663711
0.00612398938395486
0.0060014263338708
0.00588029798705847
0.00576057662858886
0.00564223512601814
0.00552524691772049
0.00540958600145203
0.00529522692313478
-0.0214058732567537
-0.0209726518922615
-0.020549109867396
-0.0201350527198159
-0.0197302898480523
-0.0193346344343119
-0.0189479033688329
-0.0185699171757143
-0.0182004999402743
-0.0178394792378427
-0.041435302287006
-0.0405996273994944
-0.0397816771752879
-0.038981096258567
-0.0381975363721061
-0.0374306561757614
-0.0366801211277057
-0.0359456033484911
-0.0352267814878289
-0.0345233405939958
-0.0567941606501314
-0.0556499013415781
-0.0545295345021657
-0.053432581419333
-0.0523585729261384
-0.0513070492103509
-0.0502775596273857
-0.04926966251697
-0.0482829250234325
-0.0473169229196841
-0.0729431918302339
-0.0714726998523147
-0.0700326220499932
-0.0686223493192379
-0.0672412847092794
-0.0658888431795539
-0.0645644513615089
-0.0632675473251787
-0.0619975803504289
-0.0607540107027624
-0.100380495195846
-0.0983508432285696
-0.0963627898522326
-0.094415502491529
-0.0925081651934505
-0.0906399782948419
-0.0888101580966065
-0.0870179365444272
-0.0852625609158864
-0.0835432935138272
-0.0882822720884207
-0.0865013988237422
-0.0847571429123484
-0.0830487711912156
-0.081375565131335
-0.0797368205450795
-0.0781318472993746
-0.076559969034605
-0.0750205228891776
-0.0735128592295489
-0.0826748992167019
-0.0810108141390931
-0.0793810039688037
-0.0777847822314364
-0.076221476152849
-0.0746904263851444
-0.0731909867381706
-0.0717225239163799
-0.0702844172609414
-0.0688760584970307
-0.0454754723384383
-0.0445762683101876
-0.0436960247138423
-0.0428343608006365
-0.0419909034079726
-0.0411652868077237
-0.0403571525575828
-0.0395661493553447
-0.0387919328961654
-0.0380341657326131
-0.0208735614853026
-0.0204842938221947
-0.0201037668615331
-0.0197318037594201
-0.019368231180529
-0.0190128792279598
-0.018665581374508
-0.0183261743953125
-0.0179944983018405
-0.0176703962772073
-0.00217221341093676
-0.00217402028982683
-0.00217672082908038
-0.00218029465662006
-0.00218472178008078
-0.0021899825792584
-0.00219605779872367
-0.00220292854056225
-0.00221057625727994
-0.00221898274483934
0.005636351726098
0.00546526009020809
0.00529668878332323
0.00513059027004203
0.00496691799281557
0.00480562635232928
0.00464667068827573
0.00449000726053761
0.00433559323070476
0.00418338664401041
0.0483816586157673
0.0473246097320565
0.0462878418842632
0.0452709531396849
0.04427354963026
0.0432952453912154
0.042335662202909
0.0413944294358668
0.040471183898898
0.0395655696902555
0.0811971493350985
0.0794541057306155
0.0777451122531847
0.0760694923702161
0.0744265831044437
0.0728157347627452
0.0712363106703595
0.0696876869104237
0.0681692520687314
0.0666804069835756
0.0845310554451189
0.082703777566417
0.0809122853658177
0.079155868080969
0.0774338291882621
0.0757454861179561
0.0740901699749976
0.0724672252654237
0.0708760096282504
0.0693158935726821
0.0882140509274336
0.0862955286472697
0.0844146728500164
0.0825707356399903
0.0807629841016002
0.0789906999996539
0.0772531794856413
0.075549732809872
0.0738796840394009
0.0722423707815665
0.0869789904264735
0.0850702080508299
0.0831989569724811
0.0813644924182277
0.0795660845311765
0.077803018072288
0.0760745921279131
0.0743801198231466
0.0727189280409455
0.0710903571468329
0.0860377000246437
0.0841332959364678
0.0822663993711998
0.0804362664384932
0.0786421681451799
0.076883390097251
0.0751592322076995
0.0734690084102851
0.0718120463789624
0.0701876872529468
0.0532473361118058
0.0520008897429598
0.0507788511741794
0.0495807385080482
0.0484060795033834
0.0472544113819922
0.0461252806392594
0.0450182428585855
0.0439328625294593
0.042868712869236
0.0105228597113829
0.0101416226818039
0.00976754444605987
0.00940048787715142
0.00904031860801524
0.00868690497620861
0.00834011796969136
0.00799983117369507
0.00766592071865446
0.0073382652291869
-0.0181750569529839
-0.0179741281548367
-0.0177776292319258
-0.0175854656806784
-0.0173975448711126
-0.0172137760094451
-0.0170340701015341
-0.0168583399169684
-0.01668649995392
-0.0165184664047011
-0.0289625491849641
-0.028543413213491
-0.0281330147800425
-0.0277311732239589
-0.0273377114823354
-0.0269524560181651
-0.0265752367499346
-0.0262058869826589
-0.0258442433402344
-0.0254901456991945
-0.0435740549311419
-0.0428567562864508
-0.0421541034877606
-0.0414657977865502
-0.0407915463947397
-0.0401310623655853
-0.0394840644769765
-0.0388502771170423
-0.0382294301720805
-0.0376212589166975
-0.0725492670099008
-0.0712374413447421
-0.0699521024299372
-0.0686927149976135
-0.0674587544714065
-0.0662497067527319
-0.0650650680113358
-0.0639043444800471
-0.062767052253605
-0.0616527170915298
-0.0928348826550547
-0.0911034635253678
-0.0894068755437907
-0.0877444168195538
-0.086115399486502
-0.0845191494226896
-0.0829550059756059
-0.0814223216928873
-0.0799204620583964
-0.078448805233613
-0.109527571379253
-0.107447831232488
-0.105409843926175
-0.103412769409928
-0.101455784421756
-0.0995380821523391
-0.0976588719161207
-0.095817378828869
-0.0940128434917931
-0.0922445216818808
-0.0888263377337584
-0.0871628188866396
-0.0855326775185841
-0.0839352409434113
-0.0823698499169776
-0.0808358583684239
-0.0793326331368114
-0.077859553713008
-0.0764160119867565
-0.075001411998791
-0.0908690322861556
-0.0891568733004124
-0.0874790172427087
-0.0858347730184512
-0.0842234633439727
-0.0826444244704057
-0.0810970059130938
-0.0795805701863745
-0.0780944925437108
-0.0766381607229913
-0.0737094114514996
-0.072341565038812
-0.0710010840661379
-0.0696874160646193
-0.0684000196047556
-0.0671383640757099
-0.0659019294690424
-0.0646902061667429
-0.063502694733522
-0.0623389057132631
-0.038298033685674
-0.037649713814135
-0.0370143108034888
-0.036391560777604
-0.0357812051291102
-0.0351829904141194
-0.034596668249069
-0.0340219952096099
-0.0334587327315354
-0.0329066470136734
-0.0161722575563648
-0.0159738021291567
-0.0157792062543134
-0.0155883869188287
-0.0154012627624525
-0.0152177540447376
-0.0150377826127635
-0.0148612718694885
-0.0146881467427473
-0.0145183336548644
0.0176550609831239
0.0171623291232681
0.0166796283984851
0.0162067644735959
0.015743546906096
0.0152897890681949
0.0148453080703792
0.0144099246865466
0.0139834632806028
0.013565751734534
0.0528188791770798
0.0515452434374151
0.0502971286250578
0.049074028362762
0.0478754464117337
0.0467008964686446
0.0455499019666767
0.0444219958805743
0.043316720535584
0.0422336274202184
0.0512099284797056
0.0499641194485214
0.0487433183205948
0.047547029202045
0.0463747661253748
0.0452260528507225
0.0441004226710948
0.0429974182214625
0.041916591291713
0.0408575026433287
0.0612288262935561
0.0597730475627944
0.058346524744195
0.0569486773232502
0.0555789364017318
0.0542367444651557
0.0529215551548692
0.0516328330447227
0.0503700534221743
0.0491327020738179
0.0769572080593459
0.0751739581321456
0.0734265674396237
0.0717143238094806
0.0700365293162442
0.0683924999961203
0.0667815655675117
0.0652030691571657
0.0636563670317685
0.0621408283349272
0.0840490255417095
0.0821144139196157
0.0802187451528216
0.0783612457093508
0.0765411575286929
0.0747577377121562
0.0730102582194014
0.0712980055710446
0.0696202805572135
0.0679763979519414
0.0892438911257685
0.0871966919080478
0.0851907465616009
0.0832252356149716
0.0812993559844344
0.079412320646
0.0775633583139914
0.0757517131260705
0.0739766443345182
0.0722374260037455
0.0530299507630509
0.0517191307121152
0.0504348883125978
0.04917669737398
0.0479440422258293
0.046736417507212
0.0455533279602633
0.044394288227938
0.0432588226557584
0.0421464650975771
0.0195440847718444
0.0189175889709929
0.0183040321249308
0.017703160504638
0.0171147254501491
0.016538483268981
0.0159741951365682
0.0154216269987266
0.0148805494760396
0.0143507377701582
-0.0030543464465751
-0.00321611567300906
-0.00337419467808076
-0.00352865248886758
-0.00367955675916676
-0.00382697379711772
-0.00397096859232349
-0.00411160484241435
-0.00424894497901818
-0.00438305019332574
-0.0289376917096469
-0.0285648228382165
-0.0281989154901581
-0.0278398260401538
-0.0274874137441259
-0.027141540681793
-0.0268020717003488
-0.026468874359292
-0.0261418188763329
-0.0258207780744151
-0.0598484970853086
-0.0588350898102021
-0.0578414203018234
-0.0568670899292165
-0.0559117080439719
-0.0549748918207484
-0.0540562661009503
-0.0531554632395341
-0.0522721229548999
-0.0514058921817586
-0.0951414398219939
-0.0933944098829258
-0.0916817635703708
-0.0900028099931021
-0.0883568720885428
-0.086743286346298
-0.0851614025372633
-0.0836105834481202
-0.0820902046211316
-0.0805996540991689
-0.0812035214529345
-0.0797285043098235
-0.0782823993941637
-0.0768646253820577
-0.0754746125881205
-0.074111802732828
-0.0727756487145133
-0.0714656143859287
-0.0701811743352749
-0.0689218136716097
-0.118118876120265
-0.115874324111587
-0.113674058021443
-0.111517189800828
-0.109402849174243
-0.107330183284319
-0.105298356343557
-0.103306549293011
-0.101353959467827
-0.0994398002694385
-0.101394406254565
-0.0994762740053901
-0.0975958775533741
-0.0957524600287503
-0.093945279712548
-0.0921736097336545
-0.0904367377719471
-0.0887339657673696
-0.0870646096347958
-0.0854279989846329
-0.101844238958607
-0.0999017381894216
-0.0979974443907281
-0.0961305916297324
-0.0943004293062906
-0.0925062218463228
-0.090747248401378
-0.0890228025541759
-0.0873321920300718
-0.0856747384142622
-0.0617189933928408
-0.0605836506324735
-0.0594703485280359
-0.0583786443402516
-0.0573081041996097
-0.0562583029290522
-0.0552288238701895
-0.0542192587129957
-0.0532292073289238
-0.0522582776073293
-0.0426972252234314
-0.0419398743058945
-0.0411969833700194
-0.0404682613366667
-0.0397534229640737
-0.0390521887311674
-0.0383642847232242
-0.0376894425198024
-0.0370273990849288
-0.0363778966594737
-0.0144420842611055
-0.0142535297200261
-0.0140680355685046
-0.013885538616945
-0.0137059769562526
-0.013529289932297
-0.0133554181208755
-0.0131843033031824
-0.0130158884417604
-0.012850117656944
0.0285620531005151
0.0278770998154254
0.027206586177817
0.0265502257161696
0.0259077376705044
0.0252788468780825
0.0246632836613916
0.0240607837183688
0.0234710880148246
0.0228939426790085
0.03276973773416
0.0320029198843006
0.0312522041133949
0.0305172706482768
0.029797806092537
0.0290935032989115
0.0284040612442418
0.0277291849069208
0.0270685851467949
0.0264219785874751
0.0850423567657099
0.0832082244684358
0.0814115779194342
0.0796516702142291
0.077927769366303
0.0762391580086685
0.0745851331013956
0.0729650056449866
0.0713781003995049
0.0698237556093009
0.086664482683128
0.0847968836845698
0.0829674717761506
0.0811754860487479
0.0794201807903097
0.0777008251818341
0.0760167029994285
0.0743671123223422
0.0727513652468197
0.0711687876056946
0.0836448906060152
0.0818391481679992
0.0800703867365833
0.0783378694831338
0.0766408742935649
0.0749786934739731
0.0733506334621605
0.071756014544933
0.0701941705810469
0.0686644487296952
0.0738488060136788
0.0722444293558038
0.0706730350574478
0.0691339661220454
0.0676265786701453
0.0661502416770166
0.0647043367154811
0.0632882577038885
0.0619014106591624
0.0605432134547428
0.0791769248290688
0.0774650712075839
0.0757883801946946
0.0741461512045127
0.0725376976391541
0.070962346608928
0.0694194386580911
0.0679083274961272
0.0664283797343579
0.0649789746278486
0.0529782217966321
0.0518050040182665
0.0506561989437557
0.0495313206146335
0.0484298927674214
0.047351448639656
0.0462955307798296
0.0452616908611123
0.0442494894988048
0.0432584960714486
0.0228276183801057
0.0222767244038113
0.0217378134106543
0.0212106475518521
0.0206949937111567
0.0201906234101479
0.0196973127154472
0.0192148421477647
0.0187429965927919
0.0182815652138579
0.0123538800241576
0.012024927933254
0.0117035355547372
0.011389553191318
0.0110828341148839
0.0107832345070982
0.0104906134011742
0.010204832624801
0.00992575674424145
0.00965325300951392
-0.0227911363155826
-0.0223912319134989
-0.0219983395197296
-0.0216123180436867
-0.0212330292412233
-0.0208603376577159
-0.0204941105722902
-0.0201342179431627
-0.0197805323540621
-0.019432928961745
-0.0653984295952128
-0.064113335531399
-0.0628529620243068
-0.0616168146314156
-0.0604044088231994
-0.0592152697848523
-0.0580489322219986
-0.0569049401702788
-0.0557828468087216
-0.054682214276891
-0.0661774009902878
-0.0648606299403198
-0.0635692170576938
-0.0623026555441246
-0.061060448761177
-0.059842110027061
-0.0586471624174738
-0.0574751385704388
-0.0563255804950344
-0.0551980393839546
-0.0997167171533668
-0.0976966000105648
-0.0957159246508557
-0.0937739034054346
-0.0918697643819737
-0.090002751149056
-0.0881721224269132
-0.0863771517843617
-0.0846171273417884
-0.0828913514800842
-0.116209543853644
-0.113832519098697
-0.111502096168179
-0.10921734485431
-0.106977353575706
-0.104781229004812
-0.102628095702757
-0.100517095761532
-0.098447388453323
-0.0964181498868388
-0.0959807226400109
-0.0939981966748817
-0.0920544022472445
-0.0901485667942232
-0.0882799332258664
-0.0864477596156306
-0.084651318897043
-0.082889898566453
-0.0811628003917022
-0.079469340126634
-0.0753839394093188
-0.0738054670781008
-0.0722576662219154
-0.0707399256630801
-0.0692516464685458
-0.0677922417049306
-0.0663611361984682
-0.0649577662997505
-0.0635815796531727
-0.0622320349709877
-0.0600168667999927
-0.0587373058065435
-0.057482461286174
-0.056251841358014
-0.0550449639992383
-0.0538613568478254
-0.052700557009274
-0.0515621108671827
-0.0504455738976155
-0.049350510487189
-0.0418974248122712
-0.0409748065370703
-0.0400697896033275
-0.0391820245550036
-0.0383111689449596
-0.0374568871947218
-0.0366188504570228
-0.0357967364811032
-0.0349902294807212
-0.0341990200047686
-0.0194825451325702
-0.0190068006135053
-0.0185397428927576
-0.018081200827444
-0.0176310067167567
-0.0171889962330614
-0.0167550083543464
-0.016328885298039
-0.0159104724561487
-0.0154996183316953
0.0344175101791571
0.0337986649817612
0.0331930109842276
0.0326002821923979
0.0320202179128692
0.031452562647063
0.0308970659873768
0.0303534825154372
0.0298215717023744
0.0293010978110964
0.0512536896501654
0.0502949358085054
0.049356154678593
0.0484369447252799
0.0475369124253593
0.0466556721073896
0.0457928457947165
0.0449480630516401
0.0441209608326574
0.0433111833347226
0.0733158707991475
0.0719083589727507
0.0705297814520289
0.0691795576656453
0.0678571186351604
0.0665619067432157
0.065293375506382
0.0640509893525198
0.0628342234026249
0.0616425632570206
0.0751389603050345
0.0736954104678489
0.0722814998641645
0.070896633822457
0.0695402295464795
0.0682117158778155
0.0669105330631723
0.0656361325263433
0.0643879766447188
0.0631655385302672
0.110213001821537
0.108051450226766
0.105933890879877
0.103859442466204
0.101827241279173
0.0998364408681738
0.0978862116935044
0.0959757407881821
0.094104231426547
0.0922709027994806
0.0922127740263221
0.0904179021641749
0.0886596739004428
0.0869373547349657
0.0852502248398448
0.0835975787660264
0.0819787251557855
0.0803929864609483
0.0788396986667479
0.0773182110212165
0.0957865556341169
0.0939176175642427
0.0920867925786837
0.0902933168589133
0.088536441845271
0.0868154339318377
0.0851295741674036
0.0834781579624284
0.0818604948018535
0.0802759079636584
0.05110390840054
0.0501497007600058
0.0492152879984467
0.0483002721473458
0.0474042631809066
0.0465268788572626
0.0456677445628504
0.044826493159924
0.0440027648370744
0.0431962069627829
0.0467416588716567
0.0458795412644353
0.0450353564216783
0.0442087435069922
0.0433993488846234
0.0426068259755112
0.0418308351162153
0.0410710434206614
0.0403271246446675
0.0395987590531615
-0.00129801125192408
-0.00117244468392563
-0.00104873210522705
-0.000926839271663482
-0.000806732638876539
-0.000688379348234847
-0.000571747213044205
-0.000456804705029512
-0.000343520941088471
-0.00023186567030109
-0.038997378164991
-0.038091947370253
-0.0372040070672295
-0.0363332109076921
-0.0354792194840012
-0.0346417001901838
-0.0338203270858184
-0.0330147807626293
-0.0322247482137392
-0.0314499227055585
-0.0443872919900627
-0.043361192159864
-0.0423550350133421
-0.0413684254595914
-0.0404009763220223
-0.0394523081799605
-0.0385220492134373
-0.0376098350510681
-0.0367153086209875
-0.0358381200047493
-0.0659925097162155
-0.0645131798536802
-0.0630629035903656
-0.0616411041206302
-0.0602472161860135
-0.0588806858441817
-0.0575409702424974
-0.0562275373961096
-0.0549398659704785
-0.0536774450682707
-0.0732490654884224
-0.0716090658187145
-0.070001381752137
-0.0684253716057199
-0.0668804065398163
-0.0653658703011235
-0.0638811589708244
-0.0624256807177925
-0.0609988555566989
-0.0596001151109906
-0.0836647150288137
-0.0817990532350876
-0.0799702736719414
-0.0781776437293651
-0.0764204454576678
-0.0746979752741499
-0.0730095436756226
-0.0713544749566939
-0.0697321069336816
-0.0681417906740514
-0.0710484948713361
-0.0694288426972527
-0.0678412044288628
-0.0662849449531819
-0.0647594418662543
-0.0632640852188171
-0.0617982772670942
-0.0603614322285448
-0.0589529760425034
-0.057572346135613
-0.0721912286541126
-0.0705371795513958
-0.0689158884230885
-0.0673267055337963
-0.0657689941480584
-0.0642421302702019
-0.0627455023894115
-0.0612785112298937
-0.0598405695060453
-0.0584311016824977
-0.0544071932158836
-0.0531071602667659
-0.0518328587350148
-0.0505837794297115
-0.0493594233476315
-0.0481593014693402
-0.0469829345593897
-0.0458298529705026
-0.0446995964516592
-0.0435917139600495
-0.0456779583151672
-0.044548477073441
-0.0434413715791528
-0.0423561998264859
-0.0412925286521872
-0.0402499335585773
-0.0392279985401061
-0.03822631591337
-0.0372444861505254
-0.0362821177160395
-0.000889743748055949
-0.000671356363790565
-0.000457168996378599
-0.000247102747215067
-4.10802971746449e-05
0.000160974125096303
0.000359134774271297
0.000553474418804711
0.000744064370785225
0.000930974515179983
0.0349663750313649
0.0344521658664778
0.0339483664274667
0.0334547638270113
0.0329711494348661
0.0324973187928332
0.0320330715314405
0.0315782112882896
0.0311325456280258
0.030695885963917
0.0631297497057481
0.0620368905653859
0.0609659758280703
0.0599165623175413
0.0588882157211312
0.0578805104126072
0.0568930292785517
0.0559253635482015
0.0549771126267231
0.0540478839317711
0.0660372957509985
0.0648805165918436
0.063746920754749
0.0626360404500019
0.0615474172446611
0.0604806018755113
0.0594351540657883
0.0584106423455353
0.0574066438755825
0.0564227442750234
0.109205804237455
0.107159080084273
0.105153311077931
0.103187674670648
0.101261364766897
0.0993735913944338
0.0975235803819299
0.0957105730430268
0.0939338258667295
0.0921926102139832
0.110254754560927
0.108177221434802
0.106141230441603
0.104145947554853
0.102190555430486
0.100274253073286
0.098396255509984
0.0965557934688928
0.0947521130659599
0.0929844754970954
0.0853349719541399
0.0837585639955734
0.0822136423701636
0.0806995741166876
0.0792157389359005
0.0777615289373621
0.0763363483913455
0.074939613485693
0.0735707520875621
0.072229203509897
0.0672009596252927
0.0659885247016216
0.0648002634635567
0.0636356891879526
0.0624943248897019
0.061375703127057
0.0602793658108496
0.0592048640175129
0.0581517578058506
0.0571196160374594
0.0750479481412505
0.0736682099808199
0.0723159642162194
0.0709906580234723
0.0696917496392118
0.0684187081395287
0.0671710132232555
0.0659481549995959
0.0647496337799609
0.0635749598740389
0.0433282782438091
0.0425913216560332
0.0418689672561783
0.041160919832933
0.0404668900842928
0.0397865944994713
0.0391197552431208
0.0384661000419264
0.0378253620734235
0.0371972798570681
0.0138880817232341
0.0137497615882154
0.0136140335204971
0.0134808422850661
0.0133501337577471
0.0132218549030583
0.0130959537525399
0.0129723793834771
0.0128510818980772
0.012732012403049
-0.0284236340871757
-0.0276971010573988
-0.0269853174415786
-0.0262879920871484
-0.0256048396571096
-0.0249355805136346
-0.0242799406039715
-0.023637651348686
-0.0230084495320817
-0.0223920771948229
-0.0174179132858008
-0.0169160385244638
-0.0164244568745389
-0.0159429661765955
-0.015471368306045
-0.0150094690923837
-0.0145570782399957
-0.0141140092505978
-0.0136800793471679
-0.0132551093994735
-0.0731991476434182
-0.0715541975216709
-0.0699424544975393
-0.0683632587904057
-0.0668159638052792
-0.0652999358689783
-0.0638145539715822
-0.0623592095130725
-0.0609333060550199
-0.0595362590772694
-0.0778554361521557
-0.0761107947831512
-0.0744014026536384
-0.0727265592788999
-0.071085578172644
-0.0694777865669245
-0.0679025251376721
-0.0663591477357102
-0.0648470211231533
-0.0633655247150724
-0.0940582040526188
-0.0919772045827045
-0.0899382344287343
-0.0879404577841782
-0.0859830555458956
-0.0840652249799589
-0.0821861793941512
-0.0803451478170256
-0.0785413746833754
-0.0767741195259983
-0.103730896534673
-0.101446409543989
-0.0992080763576855
-0.0970149789015089
-0.0948662174484678
-0.092760910251771
-0.0906981931850996
-0.0886772193900907
-0.0866971589308534
-0.0847571984554083
-0.0713646408060136
-0.069738087416523
-0.068144575508537
-0.0665834489647867
-0.0650540647751168
-0.0635557927742436
-0.0620880153847256
-0.0606501273651219
-0.0592415355631477
-0.0578616586737919
-0.0407921659018502
-0.0397902332366762
-0.0388088919398477
-0.0378477345449628
-0.0369063617188363
-0.03598438209875
-0.0350814121329286
-0.0341970759242365
-0.0333310050769722
-0.0324828385467502
-0.0310867561627415
-0.0302849357939419
-0.0294997472721867
-0.0287308621490112
-0.0279779585278295
-0.02724072093282
-0.0265188401803975
-0.0258120132532884
-0.0251199431770992
-0.0244423388993731
0.00111424408458838
0.00125346022356254
0.00138926202655476
0.0015217140744479
0.00165087967420519
0.00177682088441422
0.00189959854035493
0.00201927227854704
0.00213590056079305
0.00224954069776295
0.0332140183129308
0.0326893512487167
0.03217451935528
0.0316693227852003
0.0311735657061121
0.0306870562204651
0.0302096062868937
0.029741031643173
0.0292811517306895
0.0288297896204508
0.0704851336562236
0.0691872794546988
0.0679147045946404
0.0666669010494303
0.0654433709712166
0.0642436264873627
0.063067189501016
0.0619135914956299
0.0607823733434074
0.0596730851175913
0.0837796873297645
0.0821964630365191
0.0806442085249106
0.0791223024552785
0.0776301359331431
0.0761671122603307
0.0747326466910962
0.0733261661931088
0.0719471092132196
0.0705949254479155
0.100673551369772
0.0987297192387917
0.0968240586772939
0.0949558048834209
0.0931242083697015
0.0913285346567747
0.0895680639732621
0.0878420909616242
0.0861499243899111
0.0844908868692702
0.104347635946958
0.102312472997284
0.10031730099359
0.0983613191964139
0.0964437428993623
0.0945638031084695
0.0927207462279664
0.0909138337523228
0.0891423419644521
0.0874055616399687
0.0875590238540749
0.0858515429113993
0.0841774913805118
0.0825361999589731
0.0809270127487771
0.0793492869882506
0.077802392789355
0.0762857128802139
0.074798642352782
0.07334058841559
0.0975014713292595
0.0955751174351143
0.0936865708116983
0.0918350750996595
0.0900198890849424
0.0882402863958696
0.0864955552062767
0.084784997944638
0.0831079310089216
0.0814636844872219
0.0662006292010879
0.0648999103740699
0.0636244812095548
0.0623738357124743
0.0611474780258767
0.0599449222281727
0.0587656921344077
0.0576093211015341
0.0564753518375696
0.0553633362145476
0.0167646721286729
0.0164641677217539
0.0161689376490557
0.0158788759405617
0.015593878764296
0.0153138443835701
0.0150386731150753
0.0147682672878204
0.0145025312028757
0.0142413710939522
0.016213182183467
0.0159152165634211
0.0156224710923247
0.0153348410978715
0.0150522240198327
0.01477451936778
0.0145016286797137
0.0142334554814703
0.0139699052469844
0.0137108853592913
-0.035824597445469
-0.0350645748042773
-0.0343205065650487
-0.0335920743320024
-0.0328789660580853
-0.0321808759179554
-0.0314975041835694
-0.0308285571021969
-0.0301737467769598
-0.0295327910496503
-0.0359485872721983
