0.00356518581481412
0.00356340367490813
0.00356162247039173
0.00355984224531622
0.00355806304368642
0.00355628490945955
0.00355450788654421
0.00355273201879925
0.00355095735003274
0.00354918392400087
0.0556930131245724
0.055665176140146
0.0556373542107221
0.0556095480241482
0.0555817582675341
0.0555539856272357
0.0555262307888381
0.0554984944371386
0.0554707772561302
0.0554430799289847
0.0517937913420736
0.0517679461145293
0.0517421218350771
0.0517163191386897
0.0516905386594831
0.0516647810307011
0.0516390468846997
0.0516133368529319
0.0515876515659325
0.0515619916533024
0.0960295254886987
0.0959816772793402
0.0959338680009696
0.095886098829057
0.0958383709374823
0.0957906854985073
0.0957430436827463
0.0956954466591385
0.095647895594919
0.0956003916555909
0.0998080126302674
0.0997584794325092
0.0997089979618706
0.0996595694292197
0.0996101950434959
0.099560876011681
0.09951161353877
0.0994624088277421
0.099413263079531
0.099364177492997
0.0993110269670901
0.0992620673546739
0.099213171486699
0.0991643405533898
0.0991155757427526
0.0990668782405474
0.0990182492302591
0.0989696898930691
0.0989212014078271
0.0988727849510225
0.0895532929781046
0.0895096584944057
0.0894660971217201
0.0894226099122613
0.089379197915863
0.0893358621799546
0.0892926037495357
0.0892494236671513
0.0892063229728673
0.0891633027042452
0.0864348825494936
0.0863933686341901
0.0863519375373789
0.0863105902531774
0.0862693277731114
0.0862281510860914
0.0861870611783893
0.0861460590336152
0.0861051456326937
0.0860643219538412
0.0692353458647079
0.0692030965420916
0.06917093545502
0.0691388633632109
0.0691068810237781
0.0690749891912134
0.0690431886173697
0.069011480051443
0.0689798642399551
0.0689483419267364
0.0387325262163706
0.0387162814788444
0.0387001245353499
0.0386840557458228
0.0386680754678157
0.03865218405649
0.0386363818646087
0.0386206692425285
0.0386050465381921
0.0385895140971212
0.0112044933455588
0.0112028237696723
0.0112012382981207
0.0111997369284892
0.011198319656262
0.0111969864748239
0.0111957373754612
0.0111945723473628
0.011193491377622
0.0111924944512377
-0.0189127695623668
-0.0188985501049903
-0.0188842545602227
-0.0188698833233967
-0.0188554367915394
-0.0188409153633611
-0.0188263194392447
-0.0188116494212351
-0.018796905713028
-0.0187820887199591
-0.0520549635893778
-0.052023361596354
-0.0519916962778398
-0.0519599684569235
-0.0519281789578441
-0.0518963286059701
-0.0518644182277786
-0.0518324486508334
-0.0518004207037645
-0.0517683352162467
-0.0589985305427422
-0.0589627022214316
-0.0589268207601539
-0.0588908870822831
-0.0588549021120364
-0.0588188667744511
-0.0587827819953609
-0.0587466487013727
-0.0587104678198423
-0.0586742402788517
-0.0896030132677292
-0.0895512166062152
-0.0894993841978339
-0.0894475173559377
-0.0893956173940834
-0.0893436856259988
-0.08929172336555
-0.0892397319267085
-0.0891877126235182
-0.0891356667700627
-0.109094034039659
-0.109031936351314
-0.108969821304956
-0.108907690461746
-0.10884554538246
-0.10878338762745
-0.108721218756605
-0.108659040329311
-0.108596853904414
-0.10853466104018
-0.0968751909657822
-0.0968187870577506
-0.0967623783385703
-0.0967059662205088
-0.0966495521152125
-0.0965931374336721
-0.0965367235861872
-0.0964803119823315
-0.0964239040309181
-0.0963675011399647
-0.0475770698461533
-0.0475450421219835
-0.0475130108909692
-0.0474809769554423
-0.0474489411174013
-0.0474169041784913
-0.0473848669399842
-0.0473528302027588
-0.0473207947672812
-0.0472887614335846
-0.0466124462187433
-0.0465807415474061
-0.0465490412061166
-0.0465173459850193
-0.0464856566737354
-0.0464539740613439
-0.0464222989363618
-0.046390632086725
-0.0463589742997685
-0.0463273263622073
-0.0227801978656679
-0.0227603267421253
-0.0227404616545038
-0.0227206030962883
-0.0227007515605538
-0.0226809075399531
-0.0226610715267051
-0.0226412440125825
-0.0226214254888997
-0.0226016164465008
0.0104740525038717
0.0104773173783334
0.0104805799747133
0.0104838402126057
0.0104870980117041
0.0104903532918033
0.010493605972801
0.0104968559746997
0.0105001032176092
0.010503347621748
0.0432713029605001
0.0432581632544383
0.0432450290673366
0.0432319007247081
0.0432187785517571
0.0432056628733713
0.0431925540141134
0.0431794522982136
0.0431663580495615
0.0431532715916982
0.0745915190011335
0.0745627274274443
0.0745339528648084
0.0745051960239051
0.0744764576146156
0.0744477383460056
0.0744190389263079
0.0743903600629051
0.0743617024623125
0.0743330668301608
0.0972818516701238
0.0972417763087878
0.0972017310558324
0.097161716897086
0.0971217348171072
0.0970817857991608
0.0970418708251935
0.0970019908758106
0.0969621469302515
0.0969223399663664
0.114803074078282
0.114754386031084
0.114705742592299
0.114657144955406
0.114608594312146
0.114560091852488
0.114511638764601
0.114463236234828
0.114414885447655
0.114366587585681
0.137200565722009
0.137140939047077
0.137081374837103
0.137021874549593
0.136962439639725
0.136903071560317
0.13684377176179
0.136784541692134
0.13672538279687
0.136666296519022
0.118478158179698
0.11842828371509
0.118378481425107
0.118328752518414
0.118279098201237
0.118229519677337
0.118180018147977
0.118130594811895
0.118081250865277
0.118031987501726
0.116772907090424
0.116724413259022
0.116676003258278
0.116627678256234
0.11657943941822
0.116531287906834
0.116483224881905
0.116435251500476
0.116387368916768
0.116339578282156
0.0900164710936211
0.0899820021660124
0.0899476217304564
0.0899133306020122
0.0898791295930996
0.0898450195134799
0.0898110011702369
0.0897770753677579
0.0897432429077155
0.0897095045890485
0.0583961000945945
0.0583781883505388
0.058360364921288
0.0583426302081692
0.0583249846100915
0.0583074285235373
0.0582899623425536
0.0582725864587433
0.0582553012612566
0.0582381071367829
0.0190368818870347
0.0190394581412264
0.0190421163329999
0.0190448563549587
0.0190476780977146
0.0190505814498916
0.0190535662981298
0.0190566325270888
0.019059780019452
0.0190630086559305
-0.00963092543119137
-0.00961318989668957
-0.00959538111696392
-0.00957749957373517
-0.00955954575030188
-0.00954152013152758
-0.00952342320382786
-0.00950525545515741
-0.00948701737499713
-0.00946870945434103
-0.0341430275521113
-0.0341122382192655
-0.0340813870064202
-0.0340504747155935
-0.0340195021499292
-0.0339884701136762
-0.0339573794121677
-0.0339262308518007
-0.033895025240015
-0.033863763385273
-0.0652652960522297
-0.0652182117099061
-0.0651710818029037
-0.06512390753195
-0.0650766900982808
-0.0650294307036104
-0.0649821305501012
-0.0649347908403333
-0.0648874127772741
-0.0648399975642488
-0.043999726655832
-0.0439626345220134
-0.04392550339468
-0.0438883342213679
-0.0438511279500904
-0.0438138855293142
-0.0437766079079353
-0.0437392960352553
-0.0437019508609572
-0.0436645733350816
-0.059162950717107
-0.0591177454203705
-0.0590725147001733
-0.059027259699707
-0.0589819815621983
-0.0589366814308811
-0.0588913604489673
-0.0588460197596184
-0.0588006605059172
-0.058755283830839
-0.0695401184073419
-0.069489296580214
-0.0694384636012074
-0.0693876207464006
-0.0693367692914811
-0.0692859105117139
-0.0692350456819092
-0.0691841760763915
-0.0691333029689675
-0.0690824276328946
-0.0568872312904934
-0.0568424259314783
-0.0567976189736989
-0.0567528115378458
-0.0567080047440613
-0.0566631997119118
-0.0566183975603598
-0.0565735994077368
-0.056528806371715
-0.0564840195692801
-0.0251219357508238
-0.0250928194365636
-0.0250637044858033
-0.0250345916255513
-0.0250054815824003
-0.0249763750825093
-0.0249472728515859
-0.0249181756148679
-0.024889084097106
-0.0248599990225455
0.0130404746009966
0.0130506137327047
0.0130607541879161
0.0130708957125222
0.0130810380525152
0.0130911809539935
0.0131013241631686
0.0131114674263712
0.0131216104900577
0.013131753100816
0.0347389835999083
0.0347383287450155
0.0347376783441903
0.0347370324114632
0.0347363909607465
0.0347357540058331
0.0347351215603972
0.0347344936379931
0.0347338702520558
0.0347332514158999
0.0563905039747365
0.0563790680960933
0.0563676424887779
0.0563562274332263
0.0563448232094706
0.0563334300971326
0.0563220483754166
0.0563106783231027
0.0562993202185403
0.0562879743396412
0.0888357465661472
0.0888081505547662
0.0887805761425487
0.0887530240078882
0.0887254948282827
0.0886979892803178
0.0886705080396508
0.0886430517809937
0.0886156211780975
0.0885882169037351
0.120464832113469
0.120421534568061
0.120378273734053
0.120335050674349
0.12029186645038
0.120248722122073
0.120205618747829
0.120162557384499
0.120119539087354
0.120076564910062
0.147078115358057
0.147021713771549
0.146965366551621
0.146909075079436
0.146852840734071
0.146796664892487
0.146740548929498
0.14668449421773
0.146628502127598
0.146572574027264
0.140223345388944
0.140170695246831
0.140118111534005
0.140065595531542
0.140013148518187
0.139960771770322
0.139908466561937
0.139856234164598
0.139804075847417
0.139751992877021
0.145455788557043
0.145400982900339
0.14534625788523
0.145291614839224
0.145237055087115
0.145182579950957
0.145128190750031
0.145073888800812
0.145019675416939
0.144965551909184
0.1171927627561
0.117152678777667
0.117112681317643
0.117072771332524
0.117032949776147
0.116993217599667
0.116953575751531
0.116914025177459
0.11687456682042
0.116835201620613
0.100564907290804
0.100533844664116
0.100502873739908
0.100471995246524
0.100441209909637
0.100410518452235
0.100379921594607
0.100349420054321
0.100319014546213
0.100288705782366
0.0749703865277429
0.0749529142183945
0.0749355341381172
0.0749182466753756
0.0749010522161345
0.0748839511438509
0.074866943839466
0.0748500306813979
0.0748332120455336
0.0748164883052211
0.0270453217356363
0.0270526600975177
0.0270600819304419
0.0270675870074756
0.0270751750997331
0.0270828459763843
0.0270905994046615
0.0270984351498678
0.0271063529753841
0.0271143526426771
-0.00916788994652141
-0.00914158676810224
-0.00911521199632061
-0.00908876632568897
-0.00906225045212047
-0.00903566507290966
-0.0090090108867132
-0.00898228859353037
-0.00895549889468361
-0.00892864249279889
-0.00914097553189785
-0.00911386823961118
-0.00908669642256138
-0.00905946079134714
-0.00903216205776819
-0.00900480093480518
-0.00897737813659926
-0.00894989437843171
-0.00892235037670336
-0.00889474684891392
-0.0355898714003021
-0.0355487929792021
-0.0355076642021213
-0.035466486120932
-0.0354252597881515
-0.0353839862569134
-0.035342666580937
-0.0353013018144984
-0.0352598930124001
-0.0352184412299413
-0.0352507643874096
-0.0352091929129099
-0.0351675816459916
-0.0351259316445493
-0.0350842439668207
-0.035042519671356
-0.0350007598169864
-0.0349589654627929
-0.0349171376680748
-0.0348752774923178
-0.0511110671182372
-0.0510610085871665
-0.0510109251250498
-0.0509608179929233
-0.0509106884516351
-0.0508605377618077
-0.050810367183799
-0.0507601779776643
-0.050709971403117
-0.05065974871949
-0.0481106857804722
-0.0480616837501585
-0.0480126687304712
-0.0479636419479469
-0.0479146046285737
-0.0478655579977509
-0.0478165032802478
-0.0477674417001633
-0.0477183744808841
-0.0476693028450427
-0.0338706817720896
-0.033828477993862
-0.0337862698545825
-0.0337440584035499
-0.033701844689272
-0.0336596297594247
-0.0336174146608107
-0.0335752004393182
-0.0335329881398779
-0.0334907788064204
0.00146923643055646
0.00149398223626297
0.00151873111193962
0.00154348244954209
0.00156823564179554
0.00159299008223127
0.00161774516522407
0.00164250028603052
0.00166725484082808
0.00169200822675509
0.0290182504564806
0.029029352423819
0.0290404585829105
0.0290515686724922
0.0290626824321209
0.0290737996022103
0.0290849199240707
0.0290960431399486
0.0291071689930683
0.0291182972276749
0.064540323089288
0.0645337543755535
0.064527196573286
0.0645206498688025
0.0645141144492127
0.0645075905024601
0.0645010782173637
0.0644945777836622
0.0644880893920598
0.0644816132342733
0.107279767484857
0.107251919504023
0.107224095569283
0.107196296405811
0.107168522739499
0.107140775297008
0.107113054805814
0.107085361994261
0.107057697591612
0.10703006232811
0.122325788036992
0.122290553528176
0.122255354376033
0.122220191504658
0.122185065839241
0.122149978306138
0.122114929832938
0.122079921348542
0.122044953783236
0.122010028068775
0.121809434625895
0.121774678248881
0.121739966484162
0.121705300268192
0.121670680539352
0.121636108238053
0.121601584306843
0.121567109690518
0.121532685336239
0.121498312193648
0.15504387489465
0.154992821359836
0.154941830712093
0.154890904327206
0.154840043583678
0.154789249862867
0.154738524549137
0.15468786903
0.154637284696277
0.154586772942261
0.174018636405531
0.173958535333378
0.173898516157862
0.173838580529621
0.173778730103409
0.173718966538295
0.173659291497864
0.173599706650425
0.173540213669226
0.173480814232682
0.144481342578747
0.144436601695089
0.144391951831706
0.144347394332483
0.144302930548087
0.144258561836251
0.144214289562061
0.144170115098264
0.144126039825569
0.144082065132973
0.140480240379739
0.140438249573071
0.140396362633063
0.140354580941293
0.140312905889421
0.140271338879575
0.140229881324746
0.140188534649192
0.14014730028886
0.140106179691814
0.104122286870805
0.104099365071952
0.104076552027523
0.1040538487945
0.104031256444795
0.104008776065771
0.10398640876077
0.103964155649671
0.103942017869443
0.103919996574727
0.0956795596411215
0.0956618830773999
0.0956443244188699
0.095626884795394
0.0956095653577343
0.095592367278229
0.0955752917514845
0.0955583399950862
0.0955415132503257
0.0955248127829469
0.0569534787446942
0.0569563072126643
0.056959255794173
0.0569623253842214
0.0569655169067769
0.0569688313156444
0.05697226959536
0.0569758327621036
0.0569795218646333
0.0569833379852411
0.0162569344925335
0.0162813680337909
0.0163059213647599
0.016330595208598
0.0163553903276372
0.0163803075244857
0.0164053476431551
0.0164305115702104
0.0164558002359443
0.0164812146155768
0.0107156568327964
0.0107442205653581
0.0107729117000121
0.0108017313326283
0.0108306806104556
0.0108597607334781
0.0108889729557964
0.0109183185870381
0.0109477989937936
0.0109774156010817
0.0054977779170066
0.00553042543756926
0.00556321235386854
0.00559614027177104
0.00562921086339174
0.00566242586873249
0.00569578709735
0.0057292964300537
0.00576295582063358
0.00579676729761838
-0.0223093443597066
-0.0222611558532826
-0.0222128160914423
-0.0221643230762059
-0.0221156747252363
-0.0220668688698868
-0.0220179032532173
-0.0219687755279796
-0.0219194832545701
-0.0218700238989512
-0.0339907533450781
-0.0339348682017467
-0.0338788109793343
-0.0338225788950199
-0.0337661690605186
-0.0337095784798069
-0.0336528040468173
-0.0335958425431005
-0.0335386906354562
-0.0334813448735316
0.0050566291376891
0.00509513811404373
0.00513386211915658
0.00517280557209305
0.00521197302104503
0.00525136914590741
0.00529099876088471
0.00533086681712799
0.00537097840540147
0.00541133875877859
-0.0170383320796646
-0.0169862156289732
-0.0169338397334331
-0.016881198841088
-0.0168282872434715
-0.0167750990727372
-0.0167216282987614
-0.0166678687262217
-0.0166138139916498
-0.0165594575604603
0.0243523147154017
0.0243868714807331
0.024421761322785
0.02445699199561
0.0244925714390378
0.0245285077817629
0.024564809344451
0.0246014846428628
0.0246385423909944
0.0246759915042328
0.0500331940129157
0.0500587969646412
0.0500848259107253
0.050111290916789
0.0501382022654832
0.050165570459704
0.0501934062258148
0.0502217205168739
0.050250524515866
0.0502798296389352
0.0820401517112921
0.082054633059428
0.0820696595364268
0.0820852439154568
0.0821013992185768
0.0821181387199388
0.0821354759489809
0.0821534246936089
0.082171999003363
0.0821912131925706
0.107236376830627
0.107244405328803
0.107253124835201
0.107262551063637
0.107272700007835
0.107283587944434
0.107295231435956
0.107307647333753
0.107320852780902
0.107334865215075
0.121797653286724
0.121806111060733
0.121815433721013
0.121825640089896
0.121836749297763
0.121848780785614
0.121861754307579
0.12187568993337
0.12189060805067
0.121906529367448
0.16527500670765
0.165271327582077
0.165268727097788
0.1652672278013
0.165266852569336
0.165267624610658
0.16526956746782
0.165272705018817
0.165277061478643
0.165282661400754
0.175944229823422
0.175947065694698
0.175951223527816
0.175956729374164
0.175963609629107
0.175971891032775
0.175981600670708
0.175992765974387
0.176005414721622
0.17601957503681
0.165472372998267
0.165494922318361
0.16551906688816
0.165544836087568
0.165572259642305
0.165601367623262
0.165632190445699
0.16566475886827
0.165699103991877
0.165735257258356
0.204006065393591
0.20402681907785
0.204049487291222
0.204074103294836
0.204100700680893
0.204129313370204
0.204159975609524
0.204192721968683
0.204227587337501
0.204264606922501
0.178701233846197
0.178755466770215
0.178811954676667
0.178870733685196
0.178931840212679
0.17899531096859
0.179061182950116
0.179129493437041
0.179200279986371
0.179273580426728
0.142858289418798
0.142954973118992
0.143054276191713
0.143156237039926
0.143260894306783
0.143368286868461
0.143478453826742
0.143591434501317
0.143707268421812
0.143825995319547
0.105150051268839
0.105294077951083
0.105441107748793
0.105591180632621
0.105744336729969
0.105900616315061
0.106060059798718
0.10622270771784
0.106388600724606
0.106557779575371
0.0819775286485838
0.0821657750489465
0.0823574235777015
0.08255251498518
0.0827510900662901
0.0829531896476515
0.0831588545744328
0.083368125696893
0.0835810438566267
0.0837976498725134
0.0571615654247804
0.0573990942438409
0.0576404260482291
0.0578856010877451
0.0581346595151726
0.0583876413704862
0.0586445865647719
0.0589055348638633
0.0591705258716969
0.0594395990133871
0.0357149799218888
0.0360043306626459
0.036297874270047
0.036595648982675
0.0368976927718981
0.037204043323343
0.0375147380181137
0.0378298139137589
0.0381493077249943
0.0384732558041824
0.00910871861555674
0.00945652545420766
0.00980888545460024
0.0101658329529643
0.0105274018225349
0.0108936254527095
0.0112645367280057
0.0116401680068233
0.012020551100022
0.0124057172493175
-0.000814372553884219
-0.000412745647359168
-6.24916385369174e-06
0.000405145474259876
0.000821466165209454
0.00124274010531497
0.00166899376635765
0.00210025287283773
0.00253654237912887
0.00297788644653922
0.00323254333205599
0.00368416157636259
0.0041409018264318
0.00460278483804067
0.00506983045816635
0.00554205760170453
0.0060194842281683
0.00650212731838009
0.00699000285116733
0.00748312578007409
0.0098835144246492
0.0103862220285004
0.0108942160040412
0.0114075069950479
0.0119261045042164
0.0124500168702303
0.0129792512449315
0.0135138135706102
0.0140537085574254
0.01459893966097
0.0508789160701545
0.0514169644808279
0.0519603609999714
0.052509104285419
0.0530631916304575
0.053622618942543
0.0541873807222612
0.0547574700425458
0.0553328785281697
0.0559135963355246
0.0587864810976958
0.0593766389009739
0.0599720680872767
0.0605727527717796
0.0611786755049707
0.061789817254465
0.0624061573872098
0.0630276736520979
0.0636543421630001
0.0642861373822362
0.109065494593992
0.109685394308324
0.110310345631749
0.110940316809742
0.111575274360064
0.112215183059143
0.112860005928996
0.113509704224703
0.114164237422454
0.114823563208172
0.246234900469598
0.245440236786816
0.244633675806493
0.243815473318597
0.242985888036902
0.242145181456892
0.241293617712757
0.240431463433572
0.239558987598794
0.238676461393163
0.238558489447262
0.237656297079776
0.236744879873129
0.235824516383982
0.234895486643871
0.233958072012904
0.233012555033635
0.232059219285221
0.231098349237961
0.230130230108337
0.272424158125689
0.271420769737021
0.270411002304801
0.269395143128635
0.268373479539859
0.26734629876162
0.266313887770154
0.265276533157318
0.26423452099451
0.263188136698019
0.273962431739544
0.272902245259338
0.271838540743348
0.270771599819215
0.269701702810876
0.268629128614384
0.26755415457574
0.266477056370805
0.265398107887364
0.264317581109418
0.282082298156123
0.280990001679791
0.279896935260368
0.278803362388927
0.277709544109322
0.276615738917014
0.275522202660495
0.274429188445379
0.273336946541165
0.272245724290752
0.265620726463778
0.264535040223903
0.263451095791472
0.262369127885494
0.261289367888137
0.260212043771296
0.259137380026089
0.258065597595302
0.256996913808795
0.255931542321877
0.282169624058005
0.28109785665108
0.280030027053532
0.278966334003277
0.277906972300025
0.276852132761585
0.275802002183143
0.274756763299526
0.273716594750414
0.272681671048503
0.241719466653773
0.240710502079449
0.239707273000657
0.238709936792302
0.237718646587086
0.236733551260952
0.235754795421316
0.234782519398053
0.233816859237213
0.232857946697421
0.208429754481027
0.207496450401869
0.206570257339329
0.205651289628799
0.204739657339591
0.20383546628666
0.202938818044733
0.202049809964795
0.201168535192867
0.200295082691051
0.173819225701695
0.172974469910777
0.172137771696599
0.171309203222847
0.170488832606834
0.169676723952975
0.168872937388137
0.168077529098814
0.167290551370072
0.166512052626184
0.134142476770593
0.133396861824369
0.132659840111193
0.131931444660254
0.13121170486712
0.13050064654338
0.129798291967583
0.129104659937407
0.128419765822994
0.127743621621397
0.0880188996282427
0.0873798017350123
0.0867494598196811
0.0861278724689128
0.0855150351835774
0.084910940438618
0.0843155777436159
0.0837289337039925
0.0831509920827958
0.0825817338630128
0.0643929347408807
0.063849787328372
0.0633152455906542
0.0627892798043749
0.0622718577838878
0.0617629449455859
0.0612625043723904
0.0607704968783402
0.0602868810732375
0.0598116134272981
0.0498349702749731
0.0493810137533298
0.0489352601145609
0.0484976577980339
0.0480681534253831
0.0476466918642451
0.047233216291693
0.0468276682573278
0.0464299877459908
0.0460401132400578
0.0431255943622213
0.0427524074850155
0.0423868329970637
0.0420288039529449
0.0416782522087922
0.0413351084813654
0.0409993024064781
0.0406707625967513
0.0403494166986671
0.0400351914488963
0.0150767840572441
0.0147888994340788
0.014507904294588
0.0142337219795598
0.0139662751902462
0.0137054860398798
0.01345127610432
0.0132035664718131
0.0129622777918517
0.0127273303231195
-0.00660906617897984
-0.00682202035108242
-0.00702887942853254
-0.0072297244912397
-0.00742463678407259
-0.00761369767462338
-0.00779698861195331
-0.00797459108632387
-0.00814658658991825
-0.00831305657855704
0.0450744607741261
0.0448920303112398
0.0447148956313262
0.0445429764485632
0.0443761926892539
0.0442144645241117
0.0440577123995524
0.0439058570679962
0.043758819617185
0.0436165214985195
0.0509373191296674
0.0508005373503694
0.0506682636650049
0.0505404213357328
0.0504169341154688
0.0502977262704774
0.0501827226020354
0.050071848467178
0.0499650297985357
0.0498621931232753
0.0933363374024109
0.0932194657635509
0.0931063708751434
0.0929969823527518
0.0928912304875613
0.0927890462601739
0.0926903613535936
0.0925951081654155
0.0925032198192325
0.0924146301752745
0.120151451318676
0.120055356101513
0.119962372981911
0.119872439201967
0.11978549278225
0.119701472528139
0.119620318035492
0.119541969695683
0.119466368699994
0.119393457043404
0.140155165886338
0.140077048775781
0.140001457306013
0.139928336970287
0.139857634075531
0.139789295742775
0.139723269907061
0.139659505316881
0.139597951533132
0.139538558927614
0.161325954187393
0.16125981872512
0.161195706131732
0.161133570268971
0.161073365795386
0.161015048162406
0.16095857361006
0.160903899162359
0.160850982622359
0.160799782566911
0.205826382014272
0.205755961391313
0.205687149395923
0.205619908198915
0.205554200713912
0.205489990590513
0.205427242207252
0.205365920664339
0.205305991776221
0.205247422063955
0.198314757710171
0.198262245537016
0.198210994459964
0.198160973662122
0.198112152992873
0.198064502959408
0.198017994718153
0.197972600066102
0.197928291432065
0.197885041867838
0.20539723050495
0.20535224444031
0.205308242231609
0.205265199426453
0.205223092150374
0.205181897097717
0.20514159152252
0.205102153229385
0.205063560564335
0.205025792405684
0.217246743415567
0.217204435588092
0.21716289522061
0.217122103380986
0.217082041623808
0.217042691981388
0.217004036954819
0.216966059505067
0.216928743044127
0.216892071426225
0.19742902236202
0.19740330475308
0.19737818101928
0.197353636457116
0.19732965676261
0.197306228022947
0.197283336708195
0.197260969663113
0.197239114099038
0.197217757585876
0.156226518483229
0.156226604155317
0.156227142911348
0.156228123170968
0.156229533674264
0.156231363474349
0.156233601930034
0.156236238698623
0.156239263728803
0.156242667253637
0.143261426770827
0.143272049943909
0.143283020541853
0.143294329706926
0.14330596883255
0.143317929556955
0.143330203756939
0.14334278354174
0.143355661247019
0.143368829428947
0.113752071617865
0.113780610614487
0.113809411247869
0.113838466533198
0.113867769678643
0.113897314080099
0.113927093316043
0.113957101142492
0.113987331488068
0.114017778449164
0.0840387923901252
0.0840846565278163
0.0841307126564642
0.0841769551264404
0.0842233784336188
0.0842699772151443
0.0843167462452916
0.0843636804314161
0.0844107748099897
0.0844580245427219
0.0624997557942633
0.0625583022409282
0.0626169844670941
0.0626757978262355
0.0627347377790353
0.0627937998898949
0.0628529798234762
0.0629122733412585
0.0629716762980941
0.0630311846387377
0.0241982255544534
0.0242773741815155
0.0243566063261971
0.0244359177759786
0.0245153043897891
0.0245947620935337
0.0246742868752079
0.0247538747794869
0.0248335219016521
0.0249132243806911
0.0213401731940186
0.0214218008761615
0.0215034715501265
0.0215851813911897
0.0216669265629419
0.0217487031995595
0.0218305073847109
0.0219123351264173
0.0219941823270656
0.0220760447476336
0.00845627180270744
0.00854500024100871
0.008633726269772
0.00872244439885895
0.0088111486855892
0.00889983263367665
0.00898848907379709
0.00907711002276205
0.00916568651785576
0.00925420842242965
0.0366412875348445
0.036716018133758
0.0367906613791732
0.0368652000908636
0.0369396143365815
0.037013880951768
0.0370879729865888
0.037161859071178
0.0372355026891858
0.0373088613489306
0.0567652058781004
0.0568281492080037
0.0568906392674834
0.0569525991494729
0.0570139398643205
0.0570745586315154
0.0571343369755901
0.057193138611507
0.0572508071050808
0.0573071632945276
0.0664196972514383
0.0664682583250232
0.066514805988342
0.0665590392934836
0.0666006176882844
0.0666391567927267
0.0666742238896258
0.0667053331366785
0.0667319405123507
0.0667534385142241
0.10117731255675
0.101169287863913
0.101153903292375
0.101130240931794
0.101097290343498
0.101053942600269
0.100998984440598
0.100931092629246
0.100848828626982
0.100750633683347
0.135576956669642
0.135424255004877
0.135250194007173
0.135052698469046
0.134829559478387
0.134578434988136
0.134296851856895
0.133982209529141
0.133631785521778
0.133242742878861
0.162456043725647
0.161966027012501
0.161428308943545
0.160839714045955
0.160197024046918
0.159496999809438
0.158736405923499
0.157912037939159
0.157020752188423
0.156059498099613
0.184806997266122
0.183682315614968
0.182479437502114
0.18119605208897
0.179830133879047
0.17837998525389
0.176844279452519
0.175222103504802
0.17351300058709
0.17171701123145
0.184863640934213
0.182888672114655
0.180830308679959
0.178690948515175
0.176473654082807
0.174182173647334
0.171820956981792
0.169395164993967
0.166910672758918
0.164374065505109
0.183084956517486
0.180456007133892
0.177798811674992
0.175122603640953
0.172437190661948
0.169752903399717
0.167080536758945
0.164431283759862
0.161816662542573
0.159248437090478
0.145544502554436
0.143110510484074
0.1407588066978
0.138501246676192
0.13634946913692
0.134314797114888
0.132408139500913
0.130639894226484
0.129019854289179
0.127557117801447
0.139908780528475
0.138777925479963
0.13782668715045
0.137060604380968
0.136484169920602
0.136100786446307
0.135912733023724
0.135921142472132
0.13612598994941
0.13652609292022
0.131045102891398
0.131830642747392
0.132801112245401
0.133950922377502
0.135273491940178
0.13676131067813
0.138406010791372
0.140198445873913
0.142128776267652
0.144186559748181
0.110998927329295
0.113296033981096
0.115686605258519
0.118158761648356
0.120700514259901
0.123299863393767
0.125944894577307
0.128623871121685
0.131325322347296
0.134038126727612
0.111583845440882
0.114300349727705
0.116997673587384
0.1196668018615
0.122299390041469
0.12488780788301
0.127425176104166
0.129905396400922
0.132323175125036
0.134674041070282
0.126277186563902
0.12848949775338
0.130626515716341
0.132687139308381
0.134671111714339
0.136579016504562
0.138412272771283
0.14017313015543
0.141864664555935
0.143490775280868
0.0935223364983497
0.0950583511441216
0.0965455746425994
0.0979912232353254
0.0994033665167428
0.100790945642495
0.102163796261514
0.103532676207622
0.104909297847883
0.106306364838648
0.0844846164360694
0.0859764810511169
0.0875332677396731
0.0891720833152134
0.0909112560838414
0.0927703849495721
0.0947703867029755
0.0969335399595653
0.0992835240683082
0.101845451176306
0.0891146349261097
0.0921893849464221
0.0955601838248512
0.0992579888460064
0.103315177037322
0.10776549287295
0.112643974369791
0.117986855521298
0.123831443142324
0.130215966371422
0.107539246076682
0.115135906540217
0.123390770834471
0.132343657579597
0.14203410195148
0.152501020132442
0.16378234308021
0.175914620976505
0.188932600293605
0.202868776018838
0.225227524585283
0.241082470599852
0.257934811341419
0.275803184970643
0.294701498891797
0.31463842072389
0.335616879094655
0.357633581274309
0.380678554998989
0.404734722072531
0.444180655153431
0.470170463620004
0.497073973898683
0.52484232560914
0.553418165365223
0.582735569338388
0.612720047457764
0.643288634302029
0.674350070816212
0.705805079941462
0.745341999529897
0.777252307957499
0.809214448612678
0.841101747975303
0.87278232379408
0.904119918752781
0.934974813346239
0.965204810278577
0.994666281382231
1.02321526683393
1.07149182371035
1.09777797241129
1.12272930368339
1.14621215395683
1.16809838201233
1.1882665165889
1.2066028631725
1.22300255592674
1.23737054120574
1.24962247979164
1.27014712583636
1.27795552272183
1.28346670513073
1.28664619550735
1.28747314789801
1.28594055708557
1.28205533211118
1.27583823314531
1.26732367254758
1.2565593828174
1.28024273521996
1.26515472600395
1.24803490538263
1.22897849796442
1.2080906079973
1.18548523990324
1.16128424904791
1.13561623625907
1.10861540011147
1.08042036127355
1.07367909945865
1.0435120097514
1.01258124199647
0.981031287077885
0.949005252111068
0.916643805011754
0.884084180839406
0.851459259071091
0.81889671965224
0.786518284292496
0.793626771472074
0.761935039368303
0.730750624863558
0.700165681564439
0.670264016622735
0.641120899933754
0.612802964814963
0.585368196107374
0.558866000700561
0.533337354671413
0.544988649497554
0.521479374440171
0.499018482437916
0.477615993250835
0.457275138021761
0.437992816089917
0.419760076601055
0.402562617482847
0.386381294680349
0.371192634956228
0.368075017923204
0.354780938911317
0.342388185847106
0.330860962244242
0.320161562004198
0.310250793143829
0.301088373942599
0.292633299534631
0.284844177563348
0.27767953207835
0.267769578685618
0.261732115125141
0.256196757497012
0.251124098726496
0.246475696846491
0.242214197396015
0.238303430462368
0.234708484434976
0.231395758680886
0.228332997448915
0.255302813174116
0.252633763736656
0.250126095824833
0.24775297994387
0.245488901914175
0.243309633109326
0.241192197646738
0.239114838366989
0.237056983272557
0.234999213918221
0.18946445133807
0.187374798797036
0.185233625738048
0.183025891772461
0.18073761991869
0.178355897036781
0.17586888108812
0.173265815105528
0.170537047567683
0.167674058689117
0.149957505033875
0.146812557341559
0.143514952154111
0.140061051264361
0.13644853995721
0.132676469840993
0.128745300160678
0.124656936167495
0.120414763092887
0.116023674272534
0.0837543302098421
0.0791000822310994
0.0743208036705099
0.0694275353026772
0.0644328310466496
0.0593507235496611
0.0541966758196958
0.048987518337953
0.0437413712918194
0.0384775517931903
0.00486050925914577
-0.000362294782427719
-0.00553879504397174
-0.0106461065080055
-0.0156608242517546
-0.0205591956243059
-0.0253173016294377
-0.0299112457772818
-0.0343173484883028
-0.0385123449795566
-0.0656100539433477
-0.0693041324116525
-0.0727217895739712
-0.0758433901551347
-0.0786506760875001
-0.0811269372667229
-0.0832571697822026
-0.0850282195618408
-0.0864289095379781
-0.0874501486414604
-0.14658720472916
-0.146801795166114
-0.146622981303428
-0.146050697582347
-0.145087194972189
-0.143737019790387
-0.142006970047899
-0.139906029917512
-0.137445283219094
-0.13463780709684
-0.14548584633049
-0.142024484041561
-0.138266258799302
-0.13423081682398
-0.129939026799271
-0.125412792031831
-0.120674856697432
-0.115748608565774
-0.110657880586523
-0.105426753672761
-0.115010416010741
-0.109563298964964
-0.104047609747985
-0.0984865494283315
-0.0929026732648146
-0.0873177430882457
-0.0817525933689685
-0.0762270119391956
-0.0707596361006082
-0.065367864608287
-0.0433678573317263
-0.0381825411889582
-0.0331169517521425
-0.0281829749630602
-0.0233910574668335
-0.0187502116603298
-0.0142680340882566
-0.00995073616734214
-0.00580318611780636
-0.00182896090338347
0.00365231601992118
0.00727317360574309
0.0107170804415753
0.0139849494314702
0.0170786194535933
0.0200007700840775
0.0227548350531476
0.0253449155116783
0.027775694102708
0.0300523507406634
0.047146315300517
0.0491243705209011
0.0509660306847942
0.0526776829514373
0.0542658408540862
0.0557370836477858
0.0570980008650143
0.0583551421951877
0.0595149727231855
0.0605838334887181
0.0853126560618581
0.08620606882299
0.0870264797380248
0.0877794412005961
0.0884702587144364
0.0891039794894863
0.0896853847191359
0.0902189852028834
0.090709019974169
0.0911594575941835
0.130850270408397
0.13121272451762
0.131545920633331
0.131852800741737
0.132136071573156
0.132398215356357
0.132641501219356
0.13286799702642
0.133079581463333
0.133277956205016
0.150154017806431
0.150322087921863
0.150481115703338
0.150632213684487
0.15077637510737
0.15091448423482
0.151047326126179
0.1511755958499
0.151299907117634
0.151420800334043
0.170647879243527
0.170753748974773
0.170857458874756
0.170959325394834
0.171059623470999
0.171158591324045
0.171256434800159
0.17135333128112
0.171449433193856
0.171544871149149
0.206116329205554
0.206193523581539
0.206270350416974
0.206346878465024
0.206423165789968
0.20649926126324
0.20657520587092
0.206651033852942
0.206726773692685
0.206802448974051
0.228847135055779
0.228911754235432
0.228976362875268
0.229040971667863
0.229105589199013
0.229170222288257
0.229234876277997
0.229299555278315
0.229364262373725
0.229428999797294
0.242533963106636
0.2425922467475
0.242650567076081
0.242708924323694
0.242767318397584
0.242825748939755
0.242884215375647
0.242942716954285
0.243001252781337
0.243059821846242
0.263002441716447
0.263051134384718
0.263099861981371
0.26314862346166
0.263197417741348
0.263246243704611
0.263295100210421
0.263343986097688
0.263392900189398
0.263441841295935
0.242955114265091
0.243014371032435
0.243073645806264
0.24313293711458
0.243192243481968
0.243251563430464
0.24331089548024
0.243370238150162
0.243429589958223
0.243488949421901
0.243054853313724
0.243114470308537
0.243174090381406
0.243233712043997
0.243293333808444
0.24335295418746
0.243412571694428
0.243472184843478
0.243531792149561
0.243591392128507
0.238607703957462
0.238669805832285
0.238731894610098
0.238793968748469
0.238856026706158
0.238918066943167
0.23898008792078
0.239042088101608
0.239104065949628
0.239166019930227
0.186067322530597
0.186155797736618
0.186244230532607
0.186332618733142
0.186420960155107
0.186509252617745
0.186597493942718
0.186685681954162
0.186773814478741
0.186861889345705
0.165490454619248
0.165589134667544
0.165687744931779
0.165786282986949
0.165884746411197
0.165983132785871
0.166081439695587
0.166179664728294
0.166277805475333
0.166375859531498
0.130218108986004
0.130334105709954
0.130449999036441
0.130565786126726
0.130681464146309
0.130797030264999
0.130912481656991
0.131027815500933
0.131143028980005
0.131258119281985
0.102787112046876
0.102916236930354
0.103045222728381
0.103174066294659
0.103302764488231
0.103431314173553
0.103559712220584
0.103687955504862
0.103816040907583
0.103943965315686
0.108364873331128
0.108490320405826
0.108615598308362
0.108740704002492
0.108865634458063
0.108990386651087
0.109114957563823
0.109239344184859
0.109363543509183
0.109487552538271
0.0752907035880645
0.0754314790289098
0.0755720462140011
0.0757124017474725
0.0758525422407842
0.0759924643128115
0.0761321645899337
0.0762716397061235
0.0764108863030356
0.0765499010300961
0.0669104656503449
0.0670538944825116
0.0671970788751326
0.0673400153887877
0.0674827005923999
0.0676251310633263
0.0677673033874505
0.0679092141592737
0.0680508599820064
0.0681922374676601
0.0746986292762335
0.0748362781251943
0.0749736501968763
0.0751107422180588
0.0752475509246962
0.0753840730620078
0.0755203053845671
0.0756562446563915
0.0757918876510313
0.0759272311516599
0.0949613924206997
0.0950866801628988
0.0952116637777565
0.095336340321349
0.0954607068595762
0.095584760468246
0.0957084982331575
0.0958319172501857
0.0959550146253651
0.0960777874749735
0.128676335863943
0.128782217127664
0.128887773797632
0.128993003433213
0.129097903604016
0.129202471889966
0.129306705881376
0.129410603179027
0.129514161394239
0.129617378148946
0.147771033200435
0.14786453684529
0.147957696695831
0.148050510640241
0.14814297657746
0.148235092417255
0.148326856080291
0.148418265498202
0.14850931861366
0.148600013380449
0.231770450311965
0.23147529889496
0.231182529381275
0.23089213743194
0.230604118444318
0.230318467555604
0.230035179646317
0.22975424934382
0.229475671025841
0.229199438824004
0.246819871182043
0.24653936775211
0.246261196086951
0.245985349590396
0.245711821437724
0.245440604579238
0.245171691743831
0.24490507544257
0.244640747972269
0.244378701419068
0.278333063694856
0.278058451688802
0.277786104606712
0.277516014150573
0.277248171829139
0.27698256896149
0.27671919668059
0.276458045936832
0.276199107501586
0.275942371970735
0.283261684004071
0.283005539420596
0.282751570498646
0.282499767260964
0.282250119572269
0.282002617142745
0.281757249531504
0.281514006150051
0.281272876265721
0.28103384900512
0.302925978882707
0.302680061982525
0.30243622008154
0.302194442050877
0.301954716637582
0.301717032467947
0.30148137805083
0.301247741780952
0.301016111942177
0.30078647671077
0.314538185735699
0.314305515929077
0.31407480831307
0.313846050838485
0.31361923136435
0.313394337661042
0.313171357413403
0.312950278223822
0.312731087615299
0.312513773034491
0.296574823130636
0.296369082406394
0.296165175496464
0.295963089377763
0.295762810965904
0.295564327118096
0.295367624636011
0.295172690268633
0.294979510715073
0.294788072627362
0.281605446019958
0.281423945452891
0.281244142643865
0.281066023923414
0.280889575588705
0.280714783906169
0.280541635114096
0.280370115425211
0.280200211029213
0.280031908095289
0.265349923198122
0.265192037416693
0.265035707698183
0.264880919974922
0.264727660171042
0.264575914204814
0.264425667990954
0.264276907442908
0.264129618475094
0.263983787005124
0.23724966721635
0.237120000005892
0.236991741110703
0.236864876154189
0.236739390773928
0.236615270623706
0.236492501375533
0.236371068721622
0.236250958376335
0.236132156078107
0.19327145719297
0.193176594473988
0.193082985966075
0.192990616994378
0.192899472917802
0.192809539130757
0.192720801064874
0.192633244190687
0.192546854019293
0.192461616103974
0.177269342236276
0.177193917836856
0.177119598658363
0.177046370251785
0.17697421821816
0.176903128210027
0.176833085932846
0.176764077146383
0.176696087666072
0.176629103364347
0.160526380605435
0.160469380839766
0.160413340017318
0.160358244053091
0.160304078925509
0.160250830677583
0.160198485418046
0.160147029322459
0.160096448634289
0.16004672966596
0.142492994188195
0.142453708085828
0.1424152384717
0.142377571727733
0.142340694309881
0.142304592749024
0.142269253651834
0.142234663701617
0.142200809659133
0.142167678363384
0.0952104347659567
0.0952021662460459
0.0951945691552955
0.0951876300732767
0.0951813356619932
0.0951756726665368
0.0951706279157204
0.0951661883226864
0.0951623408854921
0.095159072687672
0.123198185703784
0.123182020235558
0.123166403132717
0.123151322172354
0.123136765219145
0.12312272022577
0.12310917523331
0.123096118371627
0.123083537859715
0.123071422006046
0.129510881424824
0.12949643543108
0.129482421253442
0.129468827640936
0.129455643433359
0.129442857561494
0.129430459047307
0.129418437004127
0.129406780636809
0.129395479241873
0.132006375560243
0.131994441773382
0.131982832087537
0.13197153619938
0.131960543897678
0.131949845063328
0.131939429669388
0.131929287781081
0.131919409555793
0.131909785243049
0.142152769930363
0.142138499679968
0.14212445733299
0.142110633633688
0.142097019418002
0.142083605613446
0.142070383238982
0.142057343404887
0.142044477312602
0.142031776254571
0.185566251860361
0.185532087134377
0.185498073289536
0.185464202518507
0.185430467103407
0.185396859415558
0.185363371915233
0.185329997151389
0.18529672776139
0.185263556470725
0.211985459351864
0.211939088695254
0.211892801859812
0.211846592251049
0.211800453360675
0.211754378766254
0.211708362130847
0.211662397202642
0.211616477814584
0.211570597883994
0.229626492411102
0.229571624912509
0.229516783874982
0.229461963773047
0.229407159163354
0.229352364684251
0.229297575055346
0.229242785077071
0.229187989630232
0.22913318367556
0.265773138416732
0.265699953920435
0.265626753900963
0.265553534087517
0.265480290286408
0.265407018380565
0.265333714329034
0.265260374166484
0.265186994002697
0.265113570022066
0.287693717797131
0.287608871100617
0.287523975526518
0.287439027832413
0.287354024847603
0.287268963472575
0.287183840678471
0.287098653506547
0.28701339906763
0.286928074541579
0.312936279958419
0.312837763585204
0.312739175919281
0.312640514733581
0.312541777866987
0.312442963223771
0.312344068773039
0.312245092548164
0.312146032646227
0.312046887227449
0.311614296898156
0.311515141812573
0.311415895976577
0.311316557793203
0.311217125725814
0.311117598297532
0.311017974090678
0.310918251746205
0.310818429963134
0.310718507497995
0.296066374285227
0.29597352115816
0.295880560140019
0.295787490031934
0.295694309689924
0.295601018024345
0.295507613999337
0.295414096632273
0.295320464993209
0.295226718204335
0.302478752989672
0.302381101458159
0.302283334378069
0.302185451165437
0.302087451285615
0.301989334252733
0.30189109962916
0.301792747024966
0.301694276097385
0.301595686550287
0.280325462825107
0.280237218402016
0.280148849190799
0.280060354814982
0.279971734942368
0.279882989284527
0.279794117596286
0.279705119675219
0.279615995361148
0.279526744535633
0.241399950924067
0.241329460759787
0.241258833994423
0.241188070201546
0.24111716899449
0.241046130025886
0.240974952987184
0.240903637608186
0.240832183656584
0.240760590937493
0.215274607258298
0.215215440463798
0.215156127869246
0.215096669110873
0.2150370638604
0.2149773118246
0.214917412744867
0.214857366396781
0.214797172589685
0.214736831166259
0.182209991601996
0.182165583655146
0.182121019297719
0.182076298100418
0.182031419665632
0.181986383627048
0.181941189649253
0.181895837427348
0.181850326686565
0.18180465718188
0.152110439506464
0.152079272283406
0.152047937957311
0.152016436032057
0.151984766039793
0.151952927540586
0.151920920122074
0.151888743399115
0.151856397013448
0.151823880633346
0.112044720764089
0.112031731690716
0.112018561355407
0.112005209038141
0.111991674044293
0.111977955704335
0.111964053373519
0.111949966431584
0.111935694282448
0.111921236353917
0.127445183767656
0.12742258533636
0.127399803626298
0.127376838349902
0.127353689241853
0.127330356058788
0.12730683857903
0.127283136602303
0.127259249949462
0.12723517846222
0.101089890433142
0.101078506081112
0.101066929688987
0.101055160856507
0.101043199203298
0.101031044368627
0.101018696011155
0.101006153808699
0.100993417457993
0.100980486674451
0.113960285622983
0.113940470382271
0.113920463373657
0.113900264545513
0.113879873863582
0.113859291310751
0.113838516886831
0.113817550608332
0.113796392508248
0.113775042635838
0.138487977755088
0.138453880454263
0.138419598113862
0.138385131151683
0.138350480000405
0.138315645107368
0.138280626934362
0.138245425957405
0.138210042666531
0.138174477565572
0.166202475297337
0.1661525198356
0.166102391518911
0.166052091250865
0.166001619947392
0.165950978536511
0.165900167958095
0.165849189163624
0.165798043115931
0.165746730788942
0.167462834539324
0.167410309052452
0.16735762073565
0.167304770626272
0.167251759771291
0.16719858922696
0.167145260058463
0.167091773339538
0.167038130152077
0.166984331585698
0.208963457000333
0.208888339775253
0.208813081509831
0.208737683838993
0.208662148402153
0.208586476842519
0.208510670806338
0.208434731942066
0.20835866189947
0.20828246232864
0.229455734069323
0.229368658288503
0.229281463495511
0.229194151592362
0.229106724474546
0.22901918402928
0.228931532133604
0.228843770652279
0.228755901435468
0.228667926316198
0.284110556169219
0.283994616362607
0.283878590589809
0.283762481270485
0.283646290789347
0.28353002149164
0.28341367567819
0.283297255599968
0.28318076345212
0.28306420136744
0.290983462325037
0.290862749554777
0.290741974905245
0.290621140280426
0.290500247478655
0.290379298181435
0.290258293941227
0.290137236168157
0.290016126115519
0.289894964864008
0.300218563266695
0.300092081004045
0.299965552310332
0.299838977517962
0.29971235668483
0.29958568956855
0.299458975598565
0.299332213846003
0.299205402991116
0.299078541288144
0.289509236547299
0.289386986009746
0.289264673959829
0.289142296422177
0.289019848775077
0.288897325696099
0.288774721103808
0.288652028095356
0.288529238879721
0.288406344706372
0.292614357224813
0.292489057700192
0.292363621558527
0.292238035451538
0.292112284637691
0.291986352878344
0.29186022232763
0.291733873415807
0.291607284725854
0.291480432863065
0.28540418615443
0.285279702952702
0.285154871553331
0.285029659125575
0.284904030096446
0.284777945973901
0.284651365161684
0.284524242765724
0.284396530391963
0.284268175935579
0.283734004700697
0.283604396323605
0.283473964941062
0.283342641319684
0.283210351332369
0.283077015696519
0.282942549704291
0.282806862945185
0.282669859021307
0.282531435255754
0.238381031022356
0.238261432564334
0.238140054004139
0.23801676396971
0.237891423268892
0.237763884569493
0.237633992077554
0.237501581214916
0.237366478297261
0.237228500213896
0.204834164954215
0.204705970467365
0.204574283315867
0.204438879168032
0.204299522743027
0.204155967533605
0.204007955542366
0.203855217033627
0.203697470303108
0.203534421467693
0.178567191798287
0.178405003609688
0.178236550336798
0.178061487458811
0.177879457612295
0.177690090553976
0.177493003161718
0.177287799476508
0.177074070788272
0.176851395768351
0.145735595086312
0.145509151853443
0.145272416572436
0.145024919415196
0.144766179395793
0.144495704841121
0.144212993927068
0.143917535282531
0.143608808663481
0.143286285699109
0.124375145974921
0.124032701658558
0.123674830830451
0.123300981346385
0.122910597804483
0.122503122754607
0.122077997987652
0.121634665904674
0.12117257096543
0.120691161215543
0.11196166172745
0.111444102004088
0.110905607386626
0.110345656956484
0.109763742140135
0.109159368668281
0.108532058596248
0.107881352381286
0.10720681101196
0.106508018184339
0.095508728258342
0.0947654221746352
0.0939967716090643
0.0932024734465008
0.0923822586436864
0.0915358945485102
0.090663187215959
0.0897639837118712
0.0888381743952608
0.0878856951696326
0.0984107283904934
0.097399159598892
0.0963610267329866
0.0952964695585409
0.0942056838230524
0.0930889231057413
0.091946500563256
0.0907787905602682
0.0895862301741915
0.0883693205633643
0.0939471253616209
0.0926798746664757
0.0913901759117814
0.0900787972538782
0.0887465753658442
0.0873944157769062
0.0860232930090634
0.0846342505033756
0.0832284003290181
0.0818069226689267
0.0987396725795867
0.0972815670327163
0.0958117794480957
0.0943317529068724
0.0928429925209561
0.0913470634948457
0.0898455889449861
0.0883402474778761
0.086832770529253
0.0853249394677741
0.129009113115468
0.127483512280837
0.125963180500638
0.1244500659425
0.122946148890121
0.121453437568263
0.119973963787357
0.118509778419881
0.117062946721695
0.115635543512466
0.138282643340624
0.136888311544852
0.135519646402508
0.134178710814862
0.132867551589263
0.131588194116927
0.130342637030406
0.129132846860163
0.12796075271005
0.126828240971648
0.145739282124956
0.144681398956783
0.143668454497957
0.14270211316219
0.1417839715076
0.140915553603658
0.140098306574695
0.139333596338141
0.138622703554991
0.137966819809261
0.165405360441427
0.164848680000617
0.164350021800348
0.163910188373797
0.163529878031144
0.163209682711583
0.162950086153484
0.162751462390584
0.162614074580759
0.162538074172503
0.213038930303563
0.213060458793138
0.213143168824968
0.213286764152008
0.21349083779365
0.213754873255081
0.214078246079645
0.214460225727787
0.214899977774804
0.215396566418275
0.215166831830958
0.215774286034127
0.216435190448595
0.217148234631707
0.217912023541699
0.218725081645478
0.219585857240527
0.220492726973621
0.221444000538426
0.222437925533457
0.201095609111794
0.202180542199715
0.203302541656471
0.204459657540685
0.205649903838071
0.206871263874909
0.208121695755381
0.209399137803493
0.210701513990645
0.21202673933035
0.230644331899961
0.232000357796307
0.233372981751362
0.234760135835191
0.236159769034824
0.237569852098763
0.238988382238415
0.240413387674312
0.241842932016029
0.243275118465831
0.244544292374517
0.245976332797921
0.247405601664502
0.248830398771863
0.250249081616642
0.251660068396561
0.253061840799437
0.254452946578693
0.255832001916133
0.257197693573847
0.230354878244215
0.231704288035459
0.23303682894506
0.234351487138138
0.235647327100119
0.236923492623601
0.238179207626849
0.239413776813607
0.240626586184613
0.241817103411878
0.205580618256212
0.206743979404404
0.207883933571313
0.209000276068091
0.210092884114919
0.211161716652185
0.212206814104339
0.213228298110151
0.214226371233128
0.215201316665718
0.194568689679752
0.195509340064269
0.196428187676994
0.197325835344383
0.198202965412695
0.199060339687609
0.199898799454602
0.200719265590435
0.201522738775313
0.202310299814549
0.148804825083238
0.149591259313094
0.150365495341891
0.151128939468793
0.151883081613425
0.152629496426676
0.153369844545119
0.154105873989326
0.154839421705079
0.155572415245148
0.157934450873367
0.158671676791787
0.159414694099993
0.160165812267908
0.160927441709665
0.161702096180311
0.162492395256427
0.163301066886537
0.164130949995602
0.164984997126371
0.147099182917708
0.148020264648495
0.148975071372827
0.149967036333188
0.150999719438372
0.152076809678226
0.153202127412286
0.154379626503384
0.155613396266057
0.15690766319843
0.128170928486851
0.129614469227369
0.131132015219982
0.132728353157945
0.134408411162074
0.136177258501369
0.138040104853228
0.14000229906642
0.142069327389975
0.144246811131282
0.151360791674289
0.153774165486895
0.156315637513618
0.158991333259895
0.161807491768508
0.164770459115581
0.167886681100183
0.171162695099635
0.17460512106483
0.178220651632276
0.201793835363633
0.205766002523083
0.209931680957293
0.214297737088388
0.218871046723796
0.223658479549138
0.228666882664965
0.233903063172789
0.239373769820613
0.245085673723002
0.244479247351029
0.250696428982575
0.257174147468205
0.263918552816365
0.270935608013676
0.278231064804989
0.285810438804518
0.293678983997522
0.301841666698007
0.310303139033697
0.353690228858872
0.362744538376978
0.372109447295113
0.381788079632365
0.391783108445942
0.402096728290038
0.412730627854132
0.42368596289314
0.434963329565912
0.446562738301961
0.48047818180743
0.492708241905565
0.505256615940893
0.518120725283804
0.531297287215301
0.544782294616823
0.558570997083963
0.572657883592975
0.58703666684748
0.601700269430314
0.649395325895146
0.66458774374377
0.680038907664603
0.695738481962014
0.71167530277058
0.727837377436902
0.744211886453636
0.760785188025347
0.777542825337302
0.794469536588641
0.867497145221776
0.884685099276242
0.901991669431492
0.919398531824621
0.936886650652913
0.954436305482107
0.972027121438164
0.989638102249653
1.00724766609493
1.02483368419468
1.05894326987405
1.07640554845665
1.09377504303813
1.11102787521311
1.12813985074224
1.14508651262032
1.16184319610307
1.17838508552993
1.19468727276941
1.21072481710269
1.22631885259299
1.24175254224573
1.25684718754399
1.27157833804278
1.28592182461004
1.29985382357707
1.31335092080919
1.32639017545842
1.3389491831577
1.35100613841556
1.37522990211942
1.38621369361995
1.3966342196852
1.4064726700326
1.41571112486632
1.42433260750007
1.43232113456301
1.43966176358236
1.44634063774549
1.45234502765523
1.45971519980688
1.4643361065493
1.46825147474322
1.47145343624144
1.47393540831987
1.47569211418567
1.47671959954516
1.47701524515963
1.47657777533496
1.47540726230754
1.48778498846036
1.48514685653082
1.48178397145493
1.4777017588396
1.47290695252875
1.46740757457183
1.46121291131916
1.45433348574472
1.44678102611323
1.43856843112302
1.42782895409211
1.41834021196918
1.40823665441897
1.3975354481889
1.38625470888246
1.37441344846964
1.36203152054928
1.3491295635845
1.33572894233908
1.32185168774758
1.26303913065416
1.24829929347358
1.23315228131054
1.21762216495999
1.2017333656191
1.18551059039768
1.16897876794094
1.15216298439669
1.13508841995466
1.11778028617887
1.07534967022673
1.05766230476393
1.03981657602422
1.02183721725965
1.0037486988439
0.985575174545424
0.967340429894478
0.949067832785715
0.930780286445819
0.912500184882405
0.876582143810599
0.8583907011564
0.840270419132471
0.822241262094674
0.804322502782931
0.786532694352245
0.768889645324164
0.751410397468038
0.734111206609098
0.717007526347724
0.668147611894873
0.651494019721006
0.635077357417497
0.618909763514837
0.603002535238938
0.587366128743602
0.572010161843168
0.556943419150424
0.54217385951819
0.527708625676423
0.488633227426706
0.47480732667149
0.461302403508621
0.448122472082033
0.435270807406406
0.422749965651715
0.410561805753796
0.398707512219043
0.387187618991739
0.376002034253061
0.340519487361577
0.330012181932035
0.319835407755045
0.309986831792839
0.300463628763567
0.291262508898007
0.282379745780097
0.273811204165373
0.265552367676392
0.257598366279293
0.229205208540144
0.221855354804372
0.214793868302923
0.208014731463034
0.201511704190452
0.19527834833474
0.189308051424406
0.183594049622499
0.178129449859316
0.172907251104623
0.160942536583886
0.156187293921886
0.151652998769568
0.147332412683833
0.143218281794159
0.139303352434176
0.135580385801797
0.132042171651469
0.128681541026408
0.125491378042516
0.12567889602806
0.122806979582116
0.120084606367306
0.117504972313861
0.115061371774616
0.112747204054051
0.110555979159816
0.108481322810589
0.106516980735776
0.104656822303856
0.123595482345493
0.121915460552003
0.120322004788239
0.11880950343583
0.117372477940521
0.116005583232124
0.114703607749587
0.113461473110858
0.11227423346675
0.111137074577355
0.124554441875705
0.123496269472709
0.122474515955426
0.121484880215998
0.120523185261698
0.119585376382298
0.11866751928044
0.11776579819387
0.116876514036761
0.115996082585666
0.152095628147907
0.151204117650575
0.150311389079843
0.149414301665048
0.148509821865262
0.147595022258225
0.146667080601444
0.14572327907603
0.144761003721894
0.143777744071009
0.169091397610605
0.168071276067382
0.167025265383203
0.165951177380632
0.164846927881707
0.163710537382641
0.162540131926085
0.161333944164499
0.16009031460651
0.158807693036481
0.184540345126243
0.18316200962946
0.181740710771411
0.180275353004702
0.178764959304257
0.177208673337161
0.175605761697014
0.173955616182503
0.172257756098937
0.170511830560733
0.210918909108763
0.209055235317206
0.207143255898364
0.205183161960472
0.203175285132638
0.201120099378916
0.199018222646004
0.196870418320289
0.194677596470266
0.192440814850803
0.21764945677271
0.215314782460936
0.212940220967635
0.210527425624229
0.2080781981208
0.205594487628482
0.203078389542384
0.200532143829802
0.19795813296998
0.195358879473501
0.222398607632474
0.219742154511404
0.217068842943008
0.214381722399646
0.211683963387481
0.208978852299046
0.206269785816792
0.203560264872276
0.200853888167889
0.198154345270426
0.189198357443901
0.186527010030136
0.183874033438472
0.181243403442177
0.178639146210342
0.176065329155733
0.173526051482947
0.171025434463717
0.16856761146807
0.166156717781876
0.135016748021753
0.132726460916941
0.13049540857923
0.12832762866011
0.126227107784647
0.124197770809402
0.122243470117807
0.120367974992334
0.118574961103
0.11686800015196
0.121321458970021
0.119793817883715
0.118362222244455
0.117029728904365
0.1157992426839
0.114673507767685
0.113655099520676
0.112746416758074
0.11194967450077
0.111266897246294
0.0628331057310365
0.0624074668443769
0.0621006517690402
0.0619138662711461
0.0618481005835392
0.0619041262782621
0.0620824938011767
0.062383530679269
0.0628073404083266
0.0633538020257867
0.0538685218996941
0.0546641042923766
0.0555806322965177
0.0566170964267721
0.0577722708446909
0.0590447169799213
0.0604327877888796
0.0619346326329077
0.0635482027553614
0.0652712573346039
0.0378461317676594
0.0397953219783105
0.0418461827362793
0.0439957757142789
0.0462410084630286
0.0485786433158102
0.0510053066508287
0.0535174984740637
0.0561116022843047
0.0587838951812972
0.0343361441040093
0.0371668663503178
0.0400640673454021
0.0430237028044684
0.0460416748328084
0.0491138426524423
0.0522360332927706
0.0554040522069013
0.0586136937762512
0.0618607516671499
0.0419131059612093
0.0452340362949978
0.048579854184484
0.051946449558496
0.0553297600195565
0.0587257796303684
0.0621305673409476
0.0655402550336716
0.0689510551656338
0.0723592679898947
0.0540615162535294
0.0574646870024147
0.0608547578558911
0.0642284432520851
0.0675825747255215
0.0709141053394851
0.0742201136307213
0.0774978070657555
0.0807445250101903
0.0839577412143836
0.0644268417469661
0.0675773740530546
0.0706876439473652
0.0737556778472092
0.0767796419779937
0.079757842130464
0.0826887230071488
0.0855708671742011
0.0884029936359396
0.0911839560504046
0.0994752199742911
0.102148162408914
0.104767288330052
0.107331965740197
0.109841683682261
0.112296048725204
0.114694781236131
0.117037711460696
0.119324775433604
0.121556010740811
0.121208416373544
0.1233297526297
0.125395937466512
0.127407370038471
0.129364528370429
0.13126796466274
0.133118300587194
0.134916222591007
0.136662477225296
0.138357866513616
0.149976339813943
0.151567618274591
0.153110727499154
0.154606646504799
0.156056387705413
0.157460992795656
0.158821528757811
0.160139083999407
0.161414764628589
0.162649690873319
0.190309508822554
0.191453097560572
0.192559350711336
0.19362941253879
0.1946644258289
0.195665529249487
0.196633854872171
0.197570525856
0.198476654291673
0.199353339204677
0.211589601570644
0.212404942685397
0.21319404431482
0.213957936484728
0.214697628459171
0.215414107633313
0.216108338560173
0.216781262106267
0.217433794730978
0.218066827884288
0.277021780798443
0.277589224117783
0.278139703202451
0.27867400633562
0.279192895358659
0.279697105660753
0.280187346247167
0.280664299880522
0.281128623289545
0.281580947439849
0.305813687731716
0.306231912016119
0.306639885129879
0.307038139045693
0.307427182076494
0.30780749941226
0.30817955368505
0.308543785558204
0.308900614335819
0.30925043858882
0.350179991258764
0.350496634428374
0.35080736147421
0.351112495011983
0.35141234018921
0.351707185345456
0.351997302669271
0.352282948849797
0.352564365721164
0.352841780898021
0.362011067120347
0.362276661289126
0.362538859816
0.362797839676032
0.363053766622099
0.36330679574107
0.363557071993778
0.363804730738294
0.3640498982361
0.364292692140862
0.355276939639175
0.35551993419094
0.355760858658737
0.355999800685641
0.356236841486248
0.356472056229906
0.356705514406802
0.356937280177211
0.357167412704218
0.357395966470273
0.397145446627585
0.397351232879482
0.397555589035065
0.397758554199334
0.397960164151217
0.398160451572241
0.398359446262256
0.398557175342675
0.398753663447763
0.398948932904463
0.385369445577022
0.385569221351439
0.385767829637518
0.385965284949262
0.386161600238119
0.38635678701436
0.386550855460338
0.386743814536072
0.38693567207758
0.387126434888367
0.387970335363112
0.388158598381884
0.388345781877368
0.388531889322523
0.388716923525785
0.388900886689226
0.389083780462297
0.389265605991453
0.389446363965943
0.389626054660001
0.358255953649794
0.35844927949035
0.35864152847904
0.358832699198868
0.359022789983607
0.359211798943212
0.359399723987098
0.359586562845446
0.359772313088695
0.359956972145349
0.316904901409033
0.317108982214486
0.317311952079229
0.317513807478749
0.317714544815324
0.317914160428239
0.318112650603069
0.318310011580112
0.318506239562038
0.318701330720836
0.28971095363798
0.289918348030159
0.290124586334041
0.290329664295513
0.290533577656189
0.290736322157224
0.290937893542769
0.291138287563079
0.291337499977324
0.291535526556125
0.275910318483134
0.276113869771798
0.2763162184761
0.276517360237641
0.276717290719046
0.27691600560532
0.277113500605075
0.277309771451627
0.277504813903992
0.277698623747776
0.255096275817237
0.255299002475112
0.255500478067801
0.25570069821293
0.255899658558331
0.256097354782525
0.256293782595173
0.256488937737474
0.256682815982536
0.256875413135709
0.225402805903403
0.225608656355575
0.225813205020683
0.226016447444605
0.226218379207163
0.226418995922333
0.226618293238439
0.226816266838334
0.227012912439569
0.227208225794556
0.213549063328105
0.213748624397462
0.213946837053784
0.21414369701916
0.21433920005139
0.214533341944101
0.214726118526869
0.214917525665323
0.215107559261253
0.215296215252714
0.210466263887434
0.210654660605036
0.21084166643454
0.211027277398031
0.21121148955439
0.211394298999387
0.211575701865765
0.211755694323323
0.211934272579
0.212111432876955
0.210990103767014
0.21116506540034
0.211338597692221
0.211510697020451
0.21168135980044
0.211850582485293
0.212018361565875
0.212184693570888
0.212349575066935
0.21251300265859
0.246862396359099
0.247005816740162
0.24714778222872
0.247288290004306
0.247427337284301
0.247564921323988
0.247701039416597
0.247835688893359
0.247968867123551
0.248100571514542
0.254859065159507
0.254984500956194
0.255108457103855
0.255230931244584
0.255351921058703
0.255471424264804
0.25558943861978
0.255705961918868
0.255820991995682
0.255934526722251
0.281068311918559
0.281166342019915
0.281262877182824
0.281357915742466
0.281451456072271
0.281543496583935
0.281634035727448
0.281723071991108
0.281810603901542
0.281896630023724
0.310071418572666
0.310140387401151
0.310207853736528
0.310273816644401
0.310338275228426
0.310401228630318
0.310462676029856
0.310522616644877
0.310581049731285
0.310637974583046
0.364192135007177
0.364219298849234
0.364244966603247
0.364269138376442
0.364291814313395
0.364312994596009
0.364332679443493
0.364350869112337
0.364367563896286
0.364382764126318
0.376866654485427
0.376872633241671
0.376877121931808
0.376880121189542
0.376881631685498
0.376881654127196
0.376880189259007
0.37687723786212
0.376872800754504
0.376866878790871
0.397441162768006
0.397421985573441
0.397401331707007
0.397379202424281
0.397355599017107
0.397330522813544
0.397303975177819
0.397275957510269
0.397246471247292
0.397215517861294
0.414851627954152
0.414808912863541
0.414764739918267
0.414719110952519
0.414672027835982
0.414623492473771
0.414573506806368
0.414522072809552
0.414469192494339
0.414414867906907
0.415268191507087
0.415210530224398
0.41515143125685
0.415090896801823
0.415028929091504
0.414965530392807
0.414900703007303
0.414834449271147
0.414766771554998
0.41469767226395
0.415510420955704
0.415438044346135
0.415364253814489
0.415289051913716
0.415212441230791
0.415134424386634
0.415055004036027
0.414974182867534
0.414891963603412
0.414808348999533
0.39905682649982
0.3989782608851
0.398898304288656
0.39881695940637
0.398734228967503
0.398650115734615
0.398564622503477
0.398477752102986
0.398389507395076
0.398299891274636
0.375379170276703
0.375298232114617
0.375215925431696
0.375132252971657
0.375047217511017
0.374960821859006
0.374873068857483
0.374783961380849
0.374693502335957
0.374601694662026
0.350638182704165
0.350555618865113
0.350471709145164
0.350386456317156
0.350299863186154
0.350211932589357
0.350122667396017
0.35003207050735
0.349940144856447
0.349846893408187
0.330182611114214
0.330096499460027
0.330009065958487
0.329920313458919
0.329830244842236
0.32973886302085
0.32964617093859
0.329552171570604
0.329456867923279
0.329360263034146
0.271945438666338
0.271874891708125
0.271803037768544
0.271729879300583
0.271655418788662
0.271579658748552
0.271502601727305
0.271424250303165
0.271344607085498
0.271263674714707
0.26302343699158
0.262944012332352
0.262863304486223
0.262781316116133
0.262698049915754
0.26261350860941
0.262527694951995
0.262440611728885
0.262352261755861
0.262262647879018
0.226162742056486
0.226088608971193
0.226013211253804
0.225936551425892
0.225858632039384
0.225779455676478
0.22569902494957
0.225617342501169
0.22553441100382
0.225450233160023
0.189205559106816
0.189136971828842
0.189067137003806
0.188996057006419
0.188923734241402
0.188850171143416
0.188775370176981
0.188699333836406
0.188622064645709
0.188543565158542
0.217468974681936
0.217373523498031
0.217276857465642
0.217178979614559
0.21707989300343
0.216979600719674
0.216878105879391
0.21677541162727
0.216671521136496
0.216566437608658
0.231686450530479
0.231571379438001
0.23145512907761
0.231337702951714
0.231219104590456
0.23109933755161
0.230978405420484
0.230856311809815
0.230733060359668
0.230608654737332
0.24714906265457
0.247014028933705
0.246877856577426
0.246740549566795
0.246602111909355
0.246462547639017
0.246321860815948
0.246180055526457
0.246037135882884
0.245893106023481
0.267246108881539
0.267089124770543
0.266931048653228
0.266771885035984
0.266611638450249
0.266450313452395
0.266287914623597
0.266124446569709
0.265959913921139
0.265794321332724
0.288816729064676
0.28863743907682
0.288457109342976
0.288275744900938
0.288093350811983
0.28790993216074
0.287725494055047
0.287540041625815
0.287353580026893
0.287166114434927
0.302164083404126
0.301967034159452
0.301769000571494
0.301569988094336
0.301370002203962
0.301169048398111
0.300967132196129
0.300764259138821
0.30056043478831
0.300355664727881
0.354659288423683
0.354425396036362
0.354190589115983
0.353954874002529
0.353718257055688
0.353480744654696
0.353242343198164
0.353003059103912
0.352762898808802
0.352521868768569
0.358757930657545
0.358511942414426
0.358265105604547
0.358017426837488
0.357768912740773
0.357519569959695
0.357269405157146
0.35701842501344
0.356766636226147
0.356514045509912
0.387223238561223
0.386953586843185
0.386683161564451
0.386411969888813
0.386140018995861
0.385867316080804
0.385593868354285
0.385319683042192
0.385044767385475
0.384769128639961
0.401856700283131
0.401570957429276
0.401284517897232
0.400997389215014
0.400709578924357
0.400421094580518
0.400131943752087
0.399842134020794
0.399551672981316
0.399260568241081
0.393532642407278
0.393242990539633
0.392952716441824
0.392661827703187
0.392370331924912
0.392078236719855
0.391785549712339
0.391492278537965
0.391198430843417
0.390904014286271
0.392382993238573
0.392086575218599
0.391789611837588
0.391492110816661
0.391194079886835
0.390895526788836
0.390596459272897
0.390296885098567
0.389996812034515
0.389696247858336
0.368726558706812
0.368435367368501
0.368143702879662
0.367851572796259
0.367558984682473
0.367265946110517
0.366972464660441
0.366678547919951
0.366384203484211
0.366089438955659
0.376610916336128
0.376309927504604
0.376008544267262
0.375706774387387
0.375404625634444
0.375102105783893
0.37479922261699
0.374495983920596
0.374192397486986
0.373888471113653
0.314368355980942
0.314093373544756
0.313818059054389
0.313542419594616
0.313266462255241
0.312990194130919
0.312713622320984
0.312436753929274
0.312159596063955
0.311882155837347
0.290264694166075
0.289997377731211
0.289729794696336
0.289461951924965
0.289193856284176
0.288925514644433
0.288656933879427
0.288388120865903
0.288119082483493
0.287849825614548
0.253219270549706
0.25296677354208
0.252714069694378
0.252461165473588
0.25220806734903
0.251954781792195
0.251701315276592
0.251447674277588
0.251193865272254
0.250939894739206
0.22406045588728
0.223819491013611
0.223578377070165
0.223337120211199
0.22309572659208
0.222854202369138
0.22261255369952
0.222370786741044
0.222128907652045
0.221886922591235
0.200691676163463
0.200459971554335
0.200228173952863
0.199996289258885
0.199764323372148
0.199532282192173
0.199300171618111
0.199067997548604
0.198835765881647
0.198603482514445
0.189907429507371
0.189679291213944
0.189451116685159
0.189222911709098
0.188994682072469
0.188766433560471
0.188538171956656
0.188309903042794
0.18808163259874
0.187853366402295
0.189850195151732
0.189620842515284
0.189391512029971
0.189162209491526
0.188932940692928
0.188703711424264
0.188474527472596
0.188245394621827
0.188016318652566
0.187787305341993
0.163544783474784
0.163327916536022
0.163111123265202
0.162894409127749
0.162677779585306
0.16246124009561
0.162244796112366
0.162028453085126
0.161812216459159
0.161596091675329
0.198270847305393
0.198036521816058
0.197802334142731
0.197568290163242
0.197334395749917
0.197100656769442
0.196867079082737
0.196633668544815
0.196400431004651
0.196167372305054
0.219055501369798
0.218811260290683
0.21856722160842
0.218323391425501
0.218079775837287
0.217836380931871
0.217593212789945
0.217350277484655
0.217107581081473
0.216865129638052
0.236030925564765
0.235779280649748
0.235527903911247
0.235276801614109
0.235025980014438
0.234775445359452
0.23452520388735
0.234275261827165
0.234025625398631
0.233776300812044
0.249963251692394
0.249706353491819
0.249449790018326
0.249193567646162
0.248937692739231
0.24868217165096
0.248427010724156
0.248172216290865
0.247917794672234
0.247663752178371
0.319534193386048
0.319244875142331
0.318955973809126
0.318667496542172
0.318379450484537
0.318091842766466
0.317804680505221
0.317517970804922
0.317231720756397
0.316945937437018
0.319143278300742
0.318857208607451
0.318571627444532
0.318286541864678
0.318001958906328
0.317717885593507
0.317434328935684
0.317151295927607
0.316868793549164
0.316586828765222
0.352807669866316
0.352508554612557
0.352210007333311
0.351912035382897
0.351614646099395
0.351317846804485
0.351021644803291
0.350726047384221
0.350431061818812
0.350136695361576
0.355194669279648
0.354898887556385
0.354603748005225
0.354309257877143
0.354015424405248
0.353722254804627
0.353429756272191
0.353137935986521
0.35284680110772
0.352556358777259
0.36649429218078
0.366198144265909
0.365902713943384
0.36560800845445
0.365314035020788
0.365020800844365
0.364728313107283
0.364436578971632
0.364145605579335
0.363855400052003
0.347769066447562
0.347488314377335
0.347208347268963
0.34692917196615
0.346650795291765
0.346373224047698
0.346096465014722
0.34582052495236
0.34554541059874
0.345271128670467
0.333499944394692
0.333233094789938
0.332967094613191
0.332701950351531
0.332437668469995
0.33217425541144
0.331911717596424
0.331650061423073
0.331389293266961
0.331129419480977
0.313465335568115
0.313215969833599
0.312967512824026
0.312719970585274
0.312473349140154
0.312227654488296
0.311982892606031
0.311739069446284
0.311496190938454
0.31125426298831
0.284016469011356
0.283789954779741
0.283564401597105
0.283339814940007
0.283116200261175
0.282893562989408
0.282671908529483
0.282451242262051
0.282231569543547
0.28201289570609
0.253930184630228
0.253727453433608
0.253525729656681
0.253325018189074
0.253125323895996
0.25292665161816
0.252729006171702
0.252532392348097
0.252336814914083
0.25214227861158
0.206918297481665
0.206748367091941
0.206579480095269
0.206411640577135
0.206244852598418
0.206079120195325
0.205914447379335
0.205750838137138
0.20558829643058
0.205426826196605
0.19089762371116
0.19074549071138
0.19059443707514
0.190444466461689
0.190295582505288
0.19014778881517
0.190001088975486
0.189855486545267
0.189710985058371
0.189567588023448
0.159787434503078
0.159661071963329
0.159535816473779
0.159411671075602
0.159288638784936
0.159166722592862
0.159045925465368
0.158926250343321
0.158807700142445
0.15869027775329
0.13035822611355
0.130257172213466
0.13015724724256
0.130058453641812
0.129960793827275
0.129864270190069
0.129768885096361
0.129674640887361
0.129581539879308
0.129489584363459
0.140982402336707
0.140886954238062
0.140792661394607
0.140699526140729
0.140607550785651
0.140516737613422
0.14042708888291
0.140338606827796
0.140251293656568
0.140165151552517
0.15472847886428
0.154637363056806
0.154547428558406
0.15445867763255
0.154371112517306
0.154284735425341
0.154199548543917
0.154115554034889
0.1540327540347
0.153951150654386
0.166276516338904
0.166191111120939
0.166106911958379
0.166023921013916
0.165942140424685
0.165861572302256
0.165782218732643
0.165704081776303
0.165627163468141
0.165551465817511
0.18550257609769
0.185419315439879
0.185337286568498
0.185256491638201
0.185176932777869
0.185098612090611
0.185021531653764
0.184945693518906
0.184871099711856
0.184797752232681
0.214189164374979
0.214103587436847
0.214019270402648
0.213936215533583
0.213854425064766
0.213773901205226
0.21369464613791
0.213616662019689
0.213539950981366
0.213464515127676
0.23964475364062
0.239551481019963
0.239459426712804
0.23936859241136
0.239278979776517
0.239190590437802
0.239103425993358
0.239017488009919
0.238932778022793
0.238849297535828
0.281524752442286
0.281422361921967
0.281321216442667
0.281221317910528
0.281122668199576
0.281025269151695
0.280929122576597
0.280834230251793
0.280740593922561
0.280648215301923
0.309128682337341
0.30902454198104
0.308921671774854
0.308820073655546
0.308719749527124
0.308620701260812
0.308522930695014
0.308426439635291
0.308331229854329
0.308237303091909
0.311641603898021
0.311548500233203
0.311456685526085
0.311366161427786
0.311276929556354
0.311188991496737
0.311102348800763
0.311017002987116
0.310932955541317
0.3108502079157
0.323809565376538
0.32372290287053
0.323637547763894
0.323553501537171
0.323470765637455
0.323389341478378
0.323309230440088
0.323230433869234
0.323152953078948
0.323076789348828
0.330814861099427
0.330737429728372
0.330661321104795
0.330586536470555
0.330513077033812
0.330440943969011
0.330370138416868
0.330300661484362
0.33023251424472
0.330165697737413
0.325455762655874
0.325393932231581
0.325333434236833
0.325274269518595
0.325216438890094
0.325159943130821
0.325104782986523
0.325050959169208
0.324998472357137
0.324947323194831
0.300819302812392
0.300782866793507
0.300747763838153
0.300713994158384
0.300681557932837
0.300650455306745
0.300620686391952
0.300592251266924
0.300565149976764
0.30053938253323
0.291646431122383
0.291627764406117
0.291610429045032
0.291594424808097
0.29157975143114
0.291566408616874
0.291554396034919
0.291543713321829
0.291534360081116
0.291526335883278
0.268577708669757
0.268583809187979
0.268591231243539
0.268599973991686
0.268610036555103
0.26862141802394
0.268634117455853
0.268648133876048
0.268663466277316
0.268680113620081
0.236506582690155
0.23654194832365
0.236578617140108
0.236616587573143
0.236655858024641
0.236696426864813
0.236738292432252
0.236781453033989
0.236825906945556
0.236871652411038
0.220735931608024
0.220792344109925
0.220850038464117
0.220909012589567
0.220969264374318
0.221030791675554
0.221093592319675
0.221157664102361
0.221223004788646
0.221289612112988
0.178245566590995
0.178336250753573
0.178428183263682
0.178521361201517
0.17861578161763
0.178711441533016
0.178808337939201
0.178906467798339
0.179005828043293
0.179106415577737
0.157330578657225
0.157444547409826
0.157559728248703
0.157676117691359
0.157793712226861
0.157912508315932
0.158032502391063
0.158153690856612
0.15827607008891
0.158399636436363
0.146887998988241
0.147019745215133
0.147152664382912
0.147286752585579
0.147422005889894
0.147558420335495
0.147695991935008
0.14783471667416
0.147974590511893
0.148115609380481
0.133389109219687
0.133539838281436
0.133691696110944
0.133844678351246
0.133998780619488
0.134153998507046
0.134310327579646
0.134467763377496
0.134626301415402
0.1347859371829
0.153137459423275
0.153290183932827
0.153443997262875
0.15359889502789
0.153754872817468
0.153911926196453
0.154070050705058
0.154229241858993
0.154389495149586
0.154550806043913
0.178159224865564
0.178310917223864
0.178463659594338
0.178617447638006
0.178772276991957
0.178928143269479
0.179085042060175
0.179242968930091
0.179401919421832
0.179561889054691
0.197221580878607
0.197374828128605
0.19752908553006
0.197684348726473
0.197840613338424
0.197997874963704
0.198156129177428
0.198315371532162
0.198475597558043
0.198636802762906
0.230336256099308
0.230483641467513
0.230632000679982
0.230781329546252
0.230931623853768
0.231082879368001
0.231235091832567
0.231388256969343
0.231542370478585
0.231697428039048
0.250388302126464
0.250535969656904
0.25068457300997
0.250834108008625
0.250984570454691
0.251135956128965
0.251288260791331
0.251441480180887
0.25159561001605
0.251750645994684
0.270237383918614
0.27038505612524
0.270533626256183
0.270683090154763
0.270833443644099
0.270984682527229
0.27113680258722
0.271289799587288
0.271443669270913
0.271598407361956
0.294161742469765
0.294307003450068
0.294453125771898
0.294600105358688
0.294747938114549
0.294896619924386
0.295046146654009
0.295196514150249
0.295347718241068
0.295499754735678
0.340647118767209
0.340778315890041
0.340910344538039
0.341043201002507
0.341176881555992
0.341311382452381
0.341446699927009
0.341582830196762
0.34171976946018
0.341857513897564
0.358051101211915
0.358182418984927
0.358314534576752
0.358447444294163
0.358581144426021
0.358715631243367
0.358850900999531
0.358986949930234
0.359123774253692
0.359261370170719
0.353929742506259
0.354071604444436
0.354214225040118
0.354357600357977
0.354501726445883
0.35464659933501
0.354792215039945
0.354938569558799
0.355085658873314
0.355233478948971
0.356990031672175
0.35713849730343
0.357287681917715
0.357437581436447
0.35758819176532
0.35773950879441
0.357891528398293
0.358044246436149
0.358197658751881
0.358351761174225
0.332633738636088
0.332802141815736
0.332971215710143
0.333140955768826
0.333311357427039
0.3334824161059
0.333654127212508
0.333826486140069
0.333999488268019
0.334173128962148
0.316871728175206
0.317055367662288
0.317239627147221
0.317424501726522
0.317609986483906
0.317796076490426
0.317982766804598
0.318170052472533
0.318357928528069
0.318546389992903
0.310037037187521
0.310231002580239
0.310425536093636
0.310620632594687
0.310816286938998
0.311012493970945
0.311209248523809
0.31140654541991
0.311604379470748
0.311802745477135
0.275415200492957
0.275632903340919
0.275851112885016
0.276069823432623
0.276289029281591
0.276508724720398
0.276728904028293
0.276949561475451
0.277170691323117
0.277392287823762
0.229180586830092
0.229427310084813
0.229674469991292
0.229922060169937
0.230170074233757
0.230418505788534
0.230667348432978
0.230916595758902
0.231166241351379
0.231416278788912
0.216857783029099
0.21711598744445
0.217374560517215
0.217633495618293
0.217892786113031
0.218152425361396
0.21841240671815
0.218672723533012
0.218933369150837
0.219194336911781
0.173278624903794
0.173563299583773
0.173848264285515
0.174133511761534
0.174419034761103
0.17470482603044
0.17499087831289
0.175277184349112
0.175563736877262
0.17585052863318
0.186758506064237
0.187040445347533
0.187322604840654
0.187604977403251
0.187887555893441
0.188170333167991
0.188453302082499
0.188736455491572
0.189019786249012
0.189303287207996
0.185944926890282
0.186230567359683
0.18651635563266
0.186802284516696
0.187088346819601
0.187374535349691
0.187660842915974
0.187947262328331
0.188233786397695
0.188520407936235
0.179414999280901
0.179706489066998
0.179998052303814
0.180289681694222
0.18058136994336
0.180873109758814
0.181164893850799
0.181456714932346
0.181748565719484
0.182040438931421
0.19024558214524
0.190533522756092
0.190821466046466
0.1911094048479
0.19139733199592
0.191685240330224
0.19197312269486
0.192260971938406
0.192548780914149
0.192836542480264
0.243826883199202
0.244089183666585
0.244351428632712
0.244613611603579
0.244875726090297
0.245137765609261
0.24539972368231
0.245661593836887
0.245923369606207
0.246185044529411
0.278196015478562
0.278441598683986
0.278687070027936
0.278932423467182
0.279177652964817
0.279422752490405
0.279667716020134
0.279912537536967
0.280157211030788
0.280401730498557
0.295081932275459
0.295318909624137
0.295555718769082
0.295792353915414
0.296028809275884
0.296265079071023
0.296501157529279
0.296737038887167
0.296972717389409
0.29720818728908
0.324510586080922
0.324732091436392
0.324953378101591
0.325174440698868
0.325395273859281
0.325615872222733
0.325836230438104
0.326056343163385
0.326276205065812
0.326495810821996
0.347087409122869
0.347296303116112
0.347504930395544
0.347713285928319
0.347921364691359
0.348129161671481
0.348336671865517
0.348543890280446
0.348750811933507
0.348957431852333
0.389444899506774
0.389630765623203
0.389816325720331
0.390001575366288
0.390186510139682
0.39037112562971
0.390555417436261
0.390739381170033
0.390923012452637
0.391106306916705
0.397161117317351
0.397340789904417
0.397520114178648
0.397699085890398
0.397877700801507
0.398055954685399
0.398233843327195
0.398411362523812
0.398588508084068
0.398765275828786
0.393434219652911
0.393612972298738
0.393791333219584
0.39396929821727
0.39414686310621
0.394324023713511
0.394500775879074
0.394677115455703
0.394853038309201
0.395028540318475
0.400072158708334
0.400244373066747
0.400416155574641
0.400587502224508
0.400758409022382
0.400928871987942
0.401098887154609
0.40126845056964
0.401437558294234
0.40160620640362
0.399342848791451
0.399511781414871
0.399680242095983
0.399848226937072
0.40001573205497
0.400182753581146
0.400349287661809
0.400515330457997
0.400680878145675
0.400845926915827
0.369513534557727
0.369693318593454
0.369872584111881
0.37005132697583
0.370229543064018
0.370407228271158
0.370584378508061
0.370760989701737
0.370937057795492
0.371112578749033
0.348322840575415
0.348508734629757
0.34869406349718
0.348878822920218
0.349063008658595
0.349246616489327
0.349429642206831
0.34961208162302
0.349793930567413
0.349975184887235
0.308863349914346
0.309064043596567
0.309264119469323
0.309463572941467
0.3096623994406
0.309860594413185
0.310058153324658
0.310255071659538
0.310451344921541
0.310646968633684
0.283917684895342
0.284125454860251
0.284332554897229
0.28453898027493
0.28474472628221
0.284949788228238
0.285154161442614
0.285357841275482
0.285560823097643
0.285763102300669
0.271676257634293
0.271884260250225
0.272091542798673
0.272298100578869
0.272503928911561
0.272709023139127
0.27291337862569
0.273116990757231
0.2733198549417
0.273521966609131
0.241843070585804
0.242059599672676
0.242275354301872
0.242490329598956
0.242704520712543
0.242917922814419
0.243130531099657
0.243342340786734
0.243553347117652
0.243763545358046
0.23719061947198
0.237402577717259
0.237613712032451
0.237824017695096
0.238033490007029
0.238242124294501
0.238449915908289
0.238656860223811
0.238862952641238
0.239068188585607
0.234907254100886
0.235112945574307
0.235317765854772
0.235521710413953
0.235724774748996
0.235926954382632
0.236128244863285
0.236328641765181
0.236528140688455
0.236726737259259
0.235999731535081
0.236196972614309
0.23639329813408
0.236588703814249
0.236783185401228
0.236976738668086
0.237169359414657
0.237361043467637
0.237551786680691
0.237741584934551
0.259853781738002
0.260030718936273
0.26020670473293
0.260381735388854
0.260555807192206
0.260728916458514
0.260901059530763
0.261072232779483
0.261242432602841
0.261411655426725
0.279689442485492
0.279847648228072
0.280004871167406
0.280161108064898
0.280316355709867
0.280470610919626
0.280623870539559
0.280776131443198
0.2809273905323
0.281077644736922
0.295059201915207
0.29520052285673
0.29534083350364
0.295480131070848
0.295618412801754
0.295755675968312
0.295891917871096
0.296027135839371
0.296161327231153
0.296294489433276
0.348488453637244
0.348593525434363
0.348697574035215
0.348800597585813
0.348902594260622
0.349003562262605
0.349103499823266
0.349202405202695
0.349300276689607
0.34939711260139
0.363350079843966
0.363437912848983
0.363524709039137
0.363610467018122
0.363695185418325
0.363778862900856
0.363861498155583
0.363943089901167
0.364023636885091
0.364103137883694
0.378215589700654
0.378285979957395
0.37835532441333
0.378423622133921
0.378490872213451
0.378557073775044
0.378622225970691
0.378686327981268
0.378749379016562
0.37881137831529
0.427802064528327
0.427837499533329
0.42787189352927
0.42790524647535
0.427937558359159
0.427968829196671
0.427999059032249
0.428028247938646
0.428056396017006
0.428083503396859
0.428078401584886
0.428103443650241
0.428127445567829
0.42815040758034
0.428172329958836
0.428193213002759
0.428213057039916
0.428231862426479
0.428249629546978
0.428266358814295
0.456612078988289
0.456612572486776
0.456612036973639
0.456610473325131
0.456607882445442
0.456604265266684
0.456599622748869
0.456593955879891
0.456587265675504
0.456579553179299
0.421508156691442
0.421515929729863
0.421522674574747
0.421528391947584
0.421533082598047
0.421536747303974
0.421539386871357
0.421541002134323
0.421541593955119
0.421541163224099
0.402653512170267
0.402660479818617
0.402666422799526
0.402671341882228
0.402675237864213
0.402678111571217
0.402679963857203
0.402680795604346
0.40268060772302
0.402679401151777
0.392287135657298
0.392289088334923
0.392290022581176
0.392289939318768
0.392288839498632
0.392286724099903
0.392283594129906
0.39227945062413
0.392274294646215
0.392268127287928
0.3656729316465
0.365678035545858
0.365682124532877
0.365685199483111
0.365687261300479
0.365688310917256
0.365688349294051
0.365687377419794
0.36568539631172
0.365682407015346
0.341729794381423
0.341736763223197
0.341742720899411
0.34174766827263
0.341751606233915
0.341754535702818
0.34175645762736
0.341757372984019
0.341757282777714
0.341756188041788
0.318794901173774
0.318803277269325
0.318810646081905
0.318817008474694
0.318822365339505
0.318826717596769
0.318830066195522
0.318832412113394
0.318833756356589
0.318834099959871
0.292261492590929
0.292273120732243
0.292283744537518
0.292293364827273
0.292301982450847
0.292309598286388
0.292316213240842
0.29232182824994
0.292326444278187
0.292330062318844
0.251488497611705
0.251510539675062
0.251531576186831
0.251551607750491
0.251570634998738
0.251588658593477
0.251605679225816
0.251621697616063
0.251636714513716
0.251650730697456
0.245240886252584
0.245256114075497
0.245270342010413
0.245283570873303
0.245295801509359
0.245307034792985
0.245317271627789
0.24532651294657
0.245334759711308
0.245342012913152
0.234709715741408
0.234720302834684
0.234729896722192
0.234738498380181
0.23474610881414
0.234752729058789
0.234758360178059
0.234763003265087
0.234766659442197
0.234769329860888
0.256792394849541
0.256782089431023
0.256770807661163
0.256758551080093
0.256745321256745
0.256731119788833
0.256715948302822
0.256699808453906
0.256682701925979
0.256664630431608
0.273064551364266
0.273036347797668
0.273007188881886
0.272977076646768
0.27294601315047
0.27291400047943
0.272881040748322
0.272847136100028
0.272812288705593
0.272776500764189
0.287921275704915
0.287876024557806
0.287829843612757
0.287782735368636
0.287734702352044
0.287685747117264
0.287635872246213
0.2875850803484
0.287533374060871
0.287480756048166
0.295291710864206
0.295233346262839
0.295174080157758
0.295113915420144
0.295052854948319
0.294990901667688
0.294928058530681
0.294864328516707
0.294799714632087
0.294734219910005
0.339016159614642
0.338926743903247
0.338836468250095
0.338745336343201
0.338653351896571
0.338560518650131
0.33846684036965
0.338372320846666
0.338276963898414
0.33818077336775
0.380603664406397
0.380484563788617
0.3803646524258
0.380243934787893
0.380122415369525
0.380000098689916
0.379876989292784
0.379753091746256
0.379628410642771
0.379502950598991
0.398687207200206
0.398550550430406
0.398413133781136
0.398274962203604
0.398136040672517
0.397996374185975
0.397855967765375
0.397714826455303
0.397572955323435
0.397430359460433
0.417714834686637
0.417560593425022
0.417405648200718
0.41725000444769
0.417093667622098
0.416936643202184
0.416778936688164
0.416620553602109
0.416461499487835
0.416301779910789
0.432483246971327
0.432314044404212
0.43214419748688
0.431973712072077
0.431802594033389
0.431630849265126
0.431458483682197
0.43128550321999
0.43111191383425
0.430937721500955
0.447306871521704
0.447123221434019
0.446938990787484
0.446754185842197
0.446568812877656
0.44638287819263
0.446196388105027
0.446009348951766
0.445821767088645
0.44563364889021
0.430097051494129
0.429915551847517
0.429733531073597
0.429550995430951
0.429367951196449
0.429184404665121
0.429000362150031
0.428815829982141
0.428630814510187
0.42844532210055
0.396956843200085
0.396786063364733
0.396614817582625
0.396443111902637
0.396270952391044
0.396098345131398
0.395925296224406
0.395751811787803
0.395577897956238
0.395403560881141
0.370037004003552
0.369874431662642
0.369711448022457
0.369548058989063
0.369384270485019
0.369220088449262
0.369055518836984
0.368890567619521
0.368725240784229
0.368559544334367
0.355785092226009
0.355624977213785
0.355464507382966
0.355303688643447
0.355142526920591
0.354981028155117
0.354819198302981
0.35465704333526
0.354494569238033
0.354331782012267
0.335738069866333
0.335583887412401
0.335429405085363
0.335274628716817
0.335119564152896
0.334964217254156
0.334808593895456
0.334652699965851
0.334496541368471
0.334340124020412
0.298659690748875
0.298520531073836
0.298381121161745
0.298241466545469
0.298101572771725
0.297961445400973
0.297821090007313
0.297680512178375
0.297539717515218
0.297398711632218
0.264983491726862
0.264858213203451
0.264732731914521
0.26460705312788
0.264481182124541
0.264355124198623
0.264228884657252
0.264102468820461
0.263975882021095
0.263849129604706
0.231201387354397
0.231090576073577
0.230979606755242
0.230868484392962
0.230757213992939
0.230645800573917
0.230534249167091
0.230422564816017
0.230310752576518
0.230198817516593
0.231772111031078
0.231659103123523
0.231545988113846
0.231432771138646
0.231319457346211
0.231206051896425
0.231092559960671
0.230978986721738
0.230865337373729
0.230751617121958
0.213383968594618
0.213278746934638
0.213173465526333
0.213068129405737
0.212962743619848
0.212857313226533
0.212751843294438
0.212646338902896
0.212540805141832
0.212435247111675
0.213831233168709
0.213724891352367
0.213618541024263
0.213512187344459
0.213405835483032
0.213299490619981
0.213193157945135
0.213086842658055
0.212980549967939
0.212874285093529
0.235668379006853
0.235550738204677
0.23543314693904
0.235315610748855
0.235198135181798
0.235080725794206
0.234963388150975
0.234846127825452
0.234728950399335
0.234611861462566
0.250688117979601
0.250563128255681
0.250438248087942
0.250313483298341
0.250188839716341
0.250064323178806
0.249939939529885
0.249815694620905
0.249691594310257
0.249567644463286
0.281450672428175
0.281311041787981
0.281171587645664
0.281032316288744
0.280893234010717
0.280754347110936
0.280615661894486
0.280477184672062
0.280338921759847
0.280200879479391
0.319725321956628
0.319508063800505
0.319290853856895
0.3190736961671
0.318856594783329
0.318639553768474
0.318422577195879
0.31820566914911
0.317988833721732
0.317772075017076
0.327593048624969
0.327371438163378
0.327149919424423
0.326928496672285
0.326707174179654
0.326485956227511
0.326264847104896
0.326043851108686
0.325822972543368
0.325602215720817
0.34679068942391
0.34655948721902
0.346328425351678
0.346097508425615
0.345866741050562
0.34563612784202
0.345405673421038
0.345175382413987
0.344945259452335
0.344715309172422
0.373522469199426
0.373278363433413
0.373034451903534
0.372790739622182
0.372547231605137
0.372303932871336
0.372060848442651
0.371817983343655
0.371575342601401
0.371332931245195
0.394483945018676
0.394230313907415
0.393976933419015
0.3937238088786
0.39347094561213
0.393218348946168
0.392966024207655
0.392713976723685
0.392462211821275
0.392210734827147
0.414837755960015
0.414575434564811
0.414313423056523
0.414051727041127
0.41379035212289
0.413529303904142
0.413268587985055
0.413008209963411
0.41274817543438
0.412488489990299
0.394725763269678
0.394475542234004
0.39422568244873
0.393976189276361
0.393727068075692
0.393478324201592
0.39322996300479
0.392981989831668
0.392734410024048
0.39248722891898
0.370727777895196
0.370492163789785
0.370256958723142
0.370022167745347
0.369787795900952
0.369553848228785
0.369320329761754
0.369087245526644
0.368854600543928
0.368622399827572
0.351504330366238
0.351281474210874
0.351059072892343
0.350837131187993
0.35061565386792
0.350394645694786
0.350174111423633
0.3499540558017
0.349734483568245
0.349515399454357
0.324873096934169
0.324667211971409
0.324461822862702
0.324256934002903
0.324052549778126
0.323848674565577
0.323645312733386
0.323442468640437
0.323240146636208
0.323038351060598
0.288494216488218
0.288310653821618
0.288127621533791
0.287945123500365
0.287763163587026
0.28758174564937
0.287400873532755
0.28722055107215
0.287040782091992
0.286861570406035
0.242097904922166
0.241942106064796
0.241786864179692
0.241632182485552
0.241478064190252
0.241324512490725
0.24117153057283
0.241019121611228
0.240867288769254
0.240716035198796
0.238500174763046
0.238351121477098
0.238202656306563
0.238054782330786
0.237907502617081
0.237760820220611
0.23761473818427
0.237469259538564
0.237324387301498
0.237180124478458
0.18660462575637
0.186486800242644
0.186369579850556
0.186252966910742
0.186136963741311
0.186021572647749
0.185906795922826
0.1857926358465
0.185679094685824
0.185566174694855
0.181622772704341
0.181513016828425
0.181403887800332
0.181295387773888
0.181187518889516
0.18108028327416
0.180973683041193
0.180867720290332
0.180762397107557
0.180657715565024
0.162532915611357
0.162438531601371
0.162344790636276
0.162251694509457
0.162159245000305
0.162067443874146
0.161976292882166
0.161885793761339
0.16179594823436
0.161706758009568
0.183949008262704
0.183849971155215
0.183751600247003
0.183653897464227
0.183556864718063
0.183460503904628
0.183364816904911
0.183269805584701
0.183175471794514
0.183081817369528
0.191597704201281
0.191501110614348
0.191405204064106
0.191309986430057
0.191215459575917
0.191121625349542
0.191028485582862
0.190936042091819
0.190844296676295
0.190753251120054
0.211961505585233
0.21186121844109
0.21176164199821
0.211662778238401
0.211564629126754
0.211467196611585
0.211370482624359
0.211274489079636
0.211179217874994
0.211084670890975
0.252239839295293
0.252126127072215
0.252013155430916
0.251900926692825
0.251789443161482
0.25167870712247
0.251568720843341
0.251459486573547
0.251351006544369
0.251243282968851
0.261576956877582
0.261465533782405
0.261354876409186
0.261244987026336
0.261135867883561
0.261027521211787
0.260919949223096
0.260813154110659
0.260707138048672
0.260601903192289
0.319750720942271
0.319617435780312
0.319484953720679
0.319353277573862
0.319222410130221
0.319092354159914
0.318963112412813
0.318834687618432
0.318707082485851
0.318580299703637
0.33681750188965
0.336683192544755
0.336549718310026
0.336417082018146
0.336285286480683
0.336154334488013
0.336024228809245
0.335894972192147
0.335766567363072
0.335639017026884
0.349538495779317
0.349405651153421
0.349273672685365
0.349142563166648
0.349012325366742
0.348882962033021
0.348754475890689
0.348626869642705
0.348500145969715
0.348374307529985
0.354931953788563
0.35480455325096
0.354678047539722
0.354552439305468
0.35442773117601
0.354303925756284
0.354181025628287
0.354059033351005
0.353937951460356
0.353817782469119
0.373662358112541
0.373534042987638
0.373406653398901
0.373280192012612
0.373154661471344
0.373030064393899
0.372906403375243
0.372783680986441
0.372661899774593
0.372541062262772
0.361839888924111
0.361726235581679
0.361613530587533
0.361501776237287
0.361390974802366
0.36128112852995
0.361172239642917
0.361064310339796
0.360957342794712
0.36085133915733
0.341285631387415
0.341191289778724
0.341097913273642
0.341005503683055
0.340914062793397
0.340823592366612
0.340734094140112
0.340645569826738
0.340558021114721
0.340471449667642
0.33490939578222
0.334827521291798
0.334746627471949
0.334666715819623
0.334587787807015
0.334509844881528
0.334432888465746
0.334356919957398
0.334281940729334
0.33420795212949
0.301956627864584
0.301900709540355
0.301845777295854
0.301791831981503
0.301738874423093
0.301686905421777
0.301635925754048
0.301585936171731
0.301536937401968
0.301488930147204
0.2551347709345
0.255111896406409
0.255090003202873
0.255069091355277
0.255049160870867
0.25503021173275
0.255012243899905
0.254995257307187
0.254979251865338
0.254964227460994
0.242375396462059
0.242368619492221
0.24236281977604
0.242357996948456
0.242354150620521
0.242351280379414
0.242349385788459
0.242348466387146
0.242348521691142
0.24234955119232
0.19672691263523
0.196752695434963
0.196779438794461
0.196807141546865
0.196835802502217
0.196865420447496
0.196895994146658
0.196927522340671
0.196960003747556
0.196993437062425
0.162017417659263
0.162070251537137
0.162124024085681
0.162178733476187
0.162234377857703
0.162290955357084
0.162348464079043
0.162406902106212
0.162466267499192
0.162526558296609
0.1610356225457
0.161098534058029
0.161162364552169
0.161227111960246
0.161292774192718
0.161359349138437
0.161426834664711
0.16149522861736
0.161564528820784
0.161634733078017
0.164130746992799
0.16420154053583
0.164273232050454
0.16434581928485
0.164419299966124
0.164493671800369
0.164568932472732
0.16464507964748
0.164722110968063
0.164800024057184
0.165770551528759
0.165849775186208
0.165929873590448
0.166010844292884
0.1660926848245
0.166175392695928
0.166258965397523
0.166343400399429
0.166428695151651
0.166514847084127
0.172980922549299
0.173065592328255
0.173151113131257
0.173237482387516
0.173324697506458
0.173412755877796
0.173501654871602
0.17359139183838
0.173681964109142
0.173773368995479
0.187805863467582
0.187891957083994
0.187978878792472
0.188066625999932
0.188155196094069
0.188244586443429
0.188334794397484
0.188425817286705
0.188517652422634
0.188610297097965
0.238217433242183
0.23828693824837
0.238357257550473
0.238428388978326
0.238500330342646
0.238573079435097
0.238646634028353
0.238720991876161
0.238796150713405
0.238872108256174
0.261410722051465
0.261477042002809
0.261544159589067
0.261612072729325
0.261680779323911
0.261750277254449
0.261820564383923
0.26189163855674
0.26196349759879
0.262036139317508
0.292907050448627
0.292965856038216
0.293025445696947
0.293085817539605
0.293146969662432
0.293208900143192
0.293271607041222
0.293335088397487
0.293399342234644
0.293464366557091
0.308193614870247
0.30825284423916
0.308312841844833
0.308373605800408
0.308435134200881
0.308497425123146
0.308560476626059
0.308624286750494
0.308688853519395
0.308754174937839
0.357064948999714
0.357107657441373
0.35715112709902
0.357195356502945
0.357240344165237
0.357286088579823
0.357332588222516
0.357379841551064
0.357427847005193
0.357476603006656
0.359263892289489
0.359313275907868
0.359363405687417
0.359414279999952
0.35946589719953
0.359518255622508
0.359571353587587
0.359625189395865
0.359679761330885
0.359735067658689
0.379749776492012
0.37979656953482
0.379844096900547
0.37989235703235
0.379941348355886
0.379991069279357
0.380041518193561
0.380092693471934
0.380144593470608
0.38019721652845
0.352630735124604
0.35269860565208
0.352767186905722
0.35283647681459
0.352906473291098
0.352977174231071
0.353048577513806
0.353120681002135
0.353193482542483
0.353266979964934
0.357676356013063
0.357749071583275
0.357822477565806
0.357896571779553
0.357971352027325
0.358046816095906
0.35812296175612
0.358199786762891
0.358277288855309
0.358355465756696
0.318250670632674
0.318350276975633
0.318450540660654
0.318551458852113
0.318653028699467
0.318755247337332
0.318858111885558
0.318961619449312
0.319065767119153
0.319170551971118
0.280400402163021
0.280525885394458
0.280651986750078
0.280778702768269
0.280906029973808
0.281033964877945
0.281162503978506
0.281291643759981
0.281421380693618
0.281551711237522
0.267985343498908
0.268123697489305
0.268262630792631
0.268402139646113
0.268542220274491
0.268682868890112
0.268824081693037
0.268965854871137
0.269108184600196
0.269251067044013
0.238379914932453
0.238539394600664
0.238699407266904
0.238859948664833
0.239021014517038
0.239182600535149
0.239344702419949
0.239507315861488
0.239670436539196
0.239834060121995
0.219188890800477
0.219363909160417
0.21953941191062
0.219715394421995
0.219891852055783
0.22006878016368
0.220246174087955
0.220424029161571
0.220602340708309
0.220781104042886
0.195524501822841
0.19571686931599
0.195909667814434
0.196102892283573
0.196296537680682
0.196490598955048
0.196685071048093
0.196879948893509
0.197075227417386
0.197270901538344
0.193001361527577
0.193200043804233
0.193399105218679
0.193598540605782
0.193798344793648
0.193998512603759
0.194199038851105
0.194399918344314
0.194601145885784
0.194802716271823
0.179032386830612
0.179242611360246
0.179453158897526
0.179664024018355
0.179875201293418
0.180086685288314
0.180298470563701
0.180510551675428
0.180722923174679
0.180935579608107
0.18379086604107
0.184002755125871
0.184214913452287
0.184427335582888
0.184640016076375
0.184852949487714
0.185066130368277
0.185279553265977
0.185493212725409
0.185707103287987
0.182749024653668
0.182964946729092
0.183181082681911
0.183397427002994
0.183613974180764
0.18383071870133
0.184047655048628
0.184264777704562
0.18448208114914
0.184699559860615
0.219366291474279
0.219566883983582
0.219767644223718
0.219968567092956
0.220169647488051
0.220370880304378
0.220572260436055
0.220773782776075
0.220975442216429
0.221177233648241
0.25523125365473
0.255416371990469
0.255601615868788
0.255786980596883
0.255972461481278
0.256158053827941
0.256343752942406
0.256529554129884
0.256715452695386
0.256901443943837
0.289949225404947
0.290118961258699
0.290288784332692
0.290458690338724
0.290628674988664
0.290798733994563
0.290968863068758
0.291139057923982
0.291309314273465
0.291479627831048
0.304549997328912
0.304713964084777
0.304877978579518
0.305042036689867
0.305206134293525
0.30537026726927
0.305534431497056
0.30569862285812
0.305862837235077
0.306027070512031
0.359938585359962
0.36007597729153
0.360213389886872
0.360350819701148
0.360488263290809
0.360625717213685
0.360763178029069
0.360900642297805
0.361038106582369
0.361175567446957
0.381081563998179
0.381209125963274
0.381336679398771
0.381464221120852
0.381591747947583
0.381719256698993
0.381846744197156
0.381974207266264
0.38210164273271
0.382229047425164
0.376439233392152
0.376569524872668
0.376699774527168
0.376829979121096
0.376960135422643
0.377090240202823
0.377220290235552
0.377350282297728
0.377480213169311
0.377610079633398
0.374026419818991
0.374158004087824
0.374289513343794
0.37442094433746
0.374552293822967
0.374683558558116
0.37481473530445
0.374945820827332
0.375076811896018
0.375207705283745
0.394278429708284
0.394399650510681
0.394520768945695
0.394641782037272
0.39476268681348
0.394883480306581
0.395004159553101
0.395124721593905
0.395245163474266
0.395365482243937
0.376390299811191
0.376519908788293
0.376649380821558
0.376778712743434
0.376907901391455
0.377036943608318
0.377165836241958
0.377294576145626
0.377423160177961
0.377551585203071
0.354986332666384
0.355125774165826
0.355265041329874
0.355404130764855
0.355543039083235
0.355681762903701
0.355820298851243
0.35595864355723
0.356096793659501
0.356234745802434
0.315333739560269
0.315491799908305
0.315649641502976
0.315807260508573
0.315964653096868
0.316121815447205
0.316278743746594
0.316435434189798
0.316591882979432
0.316748086326046
0.321274408691173
0.321427925186794
0.321581186066227
0.321734187626682
0.321886926173699
0.322039398021242
0.322191599491781
0.322343526916382
0.322495176634798
0.32264654499555
0.262437404563613
0.262618371732493
0.262799030806193
0.262979377423376
0.263159407232692
0.263339115892887
0.263518499072904
0.263697552451985
0.263876271719775
0.264054652576425
0.24454475031999
0.244732282965954
0.244919459199804
0.245106274521468
0.245292724442147
0.245478804484414
0.245664510182328
0.245849837081536
0.246034780739378
0.246219336724997
0.21425934689315
0.214459182282011
0.214658608344326
0.214857620300307
0.215056213382906
0.215254382837926
0.215452123924135
0.215649431913378
0.215846302090687
0.216042729754397
0.187550470355202
0.187760339415192
0.187969744410616
0.188178680339639
0.18838714221465
0.188595125062378
0.188802623924013
0.18900963385532
0.189216149926755
0.189422167223582
0.201119580903869
0.20131884147724
0.201517591636897
0.201715826670476
0.201913541880848
0.202110732586221
0.202307394120254
0.202503521832164
0.202699111086835
0.202894157264927
0.218806416863392
0.21899250621053
0.219178042842624
0.219363022398713
0.21954744053394
0.219731292919651
0.219914575243496
0.22009728320953
0.220279412538309
0.220460958966991
0.221207384580064
0.221387469825611
0.221566959631486
0.221745849809219
0.22192413618742
0.222101814611874
0.222278880945639
0.222455331069141
0.222631160880264
0.222806366294447
0.247874102500421
0.248035603521087
0.248196474528551
0.248356711816976
0.248516311698221
0.248675270501914
0.248833584575546
0.248991250284544
0.249148264012359
0.249304622160546
0.28031409058967
0.280453703891715
0.280592659023251
0.280730952840277
0.280868582216893
0.281005544045367
0.281141835236206
0.281277452718223
0.281412393438604
0.281546654362978
0.32377859419116
0.32389044266276
0.324001613391794
0.324112103938479
0.324221911881253
0.324331034816824
0.324439470360224
0.324547216144857
0.324654269822549
0.3247606290636
0.350060692978126
0.350153062431476
0.350244737180597
0.350335715281463
0.350425994808432
0.350515573854282
0.350604450530255
0.35069262296609
0.350780089310063
0.350866847729024
0.382357372159839
0.382427011056255
0.382495944879531
0.382564172259205
0.382631691843153
0.382698502297621
0.382764602307245
0.382829990575072
0.382894665822591
0.382958626789748
0.404505193604821
0.404556983374085
0.404608060830339
0.404658425053034
0.404708075139909
0.404757010207004
0.404805229388671
0.404852731837586
0.404899516724763
0.404945583239568
0.406847156686475
0.406890856220881
0.406933835548219
0.406976093954291
0.407017630743273
0.407058445237724
0.407098536778596
0.407137904725239
0.40717654845541
0.407214467365275
0.43284216204726
0.432865837579699
0.432888793304984
0.432911029009181
0.432932544496457
0.432953339589079
0.432973414127408
0.432992767969893
0.433011400993068
0.433029313091544
0.419395531495158
0.419418825252163
0.419441394295129
0.419463238422237
0.41948435744989
0.419504751212703
0.419524419563502
0.419543362373319
0.419561579531381
0.41957907094511
0.382087673583528
0.382122462619183
0.382156515900921
0.382189832945407
0.382222413287953
0.382254256482513
0.38228536210169
0.382315729736735
0.382345358997549
0.38237424951268
0.384630888024072
0.384657186047697
0.384682744907869
0.384707564335266
0.384731644079183
0.384754983907527
0.384777583606815
0.384799442982168
0.38482056185731
0.384840940074558
0.335579674976985
0.335623205669264
0.335665982412409
0.335708004514151
0.33574927130143
0.335789782120397
0.335829536336427
0.335868533334123
0.33590677251732
0.335944253309091
0.328937801265549
0.328977284312688
0.329016005505199
0.329053964256128
0.329091159997871
0.329127592182178
0.329163260280158
0.329198163782279
0.329232302198377
0.329265675057655
0.288613631413708
0.288665808980182
0.288717209019327
0.28876783063513
0.288817672951486
0.288866735112202
0.288915016281014
0.288962515641595
0.289009232397568
0.289055165772511
0.261329234806957
0.2613874811819
0.261444934680161
0.261501594262104
0.261557458908454
0.261612527620317
0.261666799419189
0.261720273346975
0.261772948465998
0.261824823859017
0.243090189011845
0.243149852750781
0.243208709205953
0.243266757309861
0.243323996015745
0.243380424297593
0.243436041150166
0.243490845589007
0.243544836650454
0.243598013391659
0.233802893223586
0.233859361068655
0.233915009306268
0.233969836955271
0.234023843055509
0.234077026667842
0.234129386874157
0.234180922777377
0.23423163350148
0.234281518191502
0.214785476305537
0.214843476513219
0.21490064312041
0.214956975115002
0.215012471506252
0.215067131324796
0.215120953622666
0.215173937473299
0.215226081971551
0.215277386233709
0.215798392994341
0.215847779006946
0.215896322384472
0.215944022334854
0.2159908780875
0.216036888893306
0.21608205402466
0.216126372775449
0.216169844461069
0.216212468418427
0.251831475183068
0.251854617685656
0.251876919934161
0.251898381791189
0.251919003140421
0.2519387838866
0.251957723955531
0.251975823294063
0.251993081870087
0.252009499672525
0.267673011020402
0.267679925347607
0.267686003099572
0.267691244542576
0.267695649963666
0.267699219670641
0.267701953992032
0.267703853277088
0.267704917895752
0.267705148238645
0.269551901912414
0.269549541514361
0.269546348620939
0.269542323728093
0.269537467352317
0.269531780030628
0.26952526232054
0.269517914800048
0.269509738067592
0.269500732742044
0.318642257343392
0.318607002423394
0.318570934208676
0.318534054000165
0.318496363118537
0.318457862904175
0.318418554717126
0.318378439937054
0.318337519963191
0.318295796214299
0.347376395307779
0.347318510480839
0.347259833892797
0.347200367399885
0.347140112877244
0.347079072218864
0.347017247337529
0.346954640164754
0.346891252650729
0.346827086764259
0.366089740944824
0.366014362951628
0.36593821767443
0.365861307394706
0.36578363441199
0.36570520104381
0.365626009625617
0.365546062510719
0.365465362070209
0.365383910692901
0.390503560889145
0.390408017152355
0.390311736362962
0.390214721291342
0.390116974724906
0.390018499468026
0.38991929834195
0.389819374184725
0.389718729851115
0.389617368212522
0.41677044706445
0.416654035381893
0.416536922258442
0.416419110967996
0.416300604800329
0.416181407060997
0.416061521071245
0.415940950167918
0.415819697703368
0.41569776704536
0.434705117438618
0.434572278010956
0.434438775603775
0.434304613881937
0.434169796525004
0.434034327227133
0.433898209696981
0.433761447657603
0.433624044846346
0.433486005014757
0.417306616440378
0.417175332198597
0.417043418066702
0.416910877653798
0.416777714582886
0.41664393249076
0.416509535027911
0.416374525858428
0.416238908659899
0.41610268712331
0.384615279676266
0.384493531898777
0.38437118271021
0.384248235466786
0.384124693538034
0.384000560306697
0.383875839168646
0.383750533532782
0.383624646820949
0.383498182467836
0.364653851372269
0.364535598359605
0.364416773175078
0.364297379072571
0.364177419318588
0.364056897192175
0.363935815984823
0.363814179000383
0.363691989554976
0.363569250976903
0.334357535400265
0.334248249109594
0.334138416111483
0.334028039422638
0.333917122071878
0.333805667100046
0.333693677559929
0.333581156516177
0.333468107045216
0.333354532235171
0.305558920360154
0.3054581414228
0.30535683921733
0.305255016535779
0.30515267618182
0.305049820970685
0.30494645372909
0.304842577295161
0.304738194518351
0.304633308259367
0.271278221914357
0.27118895794272
0.271099190414127
0.271008921822686
0.270918154673807
0.270826891484124
0.270735134781433
0.270642887104619
0.270550151003589
0.270456929039202
0.23752825382772
0.237450481175537
0.237372221792748
0.237293477877611
0.237214251639412
0.237134545298405
0.237054361085751
0.236973701243455
0.236892568024306
0.236810963691814
0.218254563754942
0.218181258844856
0.218107484828595
0.218033243783663
0.217958537798211
0.217883368970983
0.217807739411256
0.21773165123878
0.217655106583725
0.217578107586618
0.199459422741458
0.199390539847425
0.199321204361039
0.19925141824075
0.199181183455305
0.199110501983693
0.19903937581509
0.198967806948804
0.19889579739422
0.198823349170746
0.212297432501639
0.212217341275627
0.212136821052803
0.212055874059486
0.211974502531563
0.211892708714419
0.211810494862887
0.211727863241176
0.211644816122819
0.211561355790605
0.209335586586504
0.209252377388487
0.209168761317946
0.209084740667617
0.209000317739211
0.208915494843352
0.208830274299515
0.208744658435961
0.208658649589677
0.208572250106314
0.224035359478663
0.223940412819661
0.223845086691659
0.223749383666457
0.223653306323996
0.223556857252291
0.223460039047363
0.223362854313165
0.22326530566152
0.223167395712047
0.235673312826081
0.235568387679299
0.235463112446562
0.235357489933719
0.235251522953899
0.235145214327443
0.235038566881829
0.234931583451592
0.234824266878258
0.234716620010262
0.260542350243201
0.260421087801393
0.260299510455122
0.260177621400158
0.260055423838471
0.259932920978146
0.2598101160333
0.259687012224001
0.259563612776179
0.259439920921547
0.299827295779379
0.299682778298507
0.299537988768687
0.299392930944475
0.299247608585264
0.299102025455181
0.298956185322994
0.298810091962016
0.298663749150007
0.298517160669077
0.308223074332936
0.308071080757311
0.307918855469273
0.307766402389104
0.307613725440827
0.3074608285521
0.30730771565412
0.307154390681522
0.307000857572276
0.306847120267592
0.365946445255863
0.365762692293971
0.365578762524828
0.365394660633721
0.365210391307901
0.36502595923646
0.364841369110221
0.364656625621613
0.364471733464557
0.364286697334346
0.38082018265935
0.380626515467554
0.38043272278197
0.380238809508777
0.380044780554714
0.379850640826964
0.379656395233028
0.379462048680601
0.379267606077453
0.379073072331301
0.397755315079386
0.397551177736746
0.39734696892541
0.397142693784913
0.396938357453878
0.396733965069893
0.396529521769382
0.396325032687474
0.396120502957878
0.395915937712756
0.383638184940986
0.383439599098991
0.383240989959783
0.383042362498881
0.382843721689776
0.382645072503809
0.382446419910047
0.38224776887516
0.382049124363299
0.38185049133597
0.382758361843441
0.382559213555562
0.382360091909962
0.382161001870022
0.381961948395856
0.381762936444185
0.381563970968215
0.381365056917518
0.381166199237907
0.380967402871315
0.343069620283227
0.342889806088447
0.342710058116979
0.342530380828214
