0.00356518581481412
0.00356518581481412
0.00356518581481412
0.00356518581481412
0.00356518581481412
0.00356518581481412
0.00356518581481412
0.00356518581481412
0.00356518581481412
0.00356518581481412
0.0557107871549796
0.0557107871549796
0.0557107871549796
0.0557107871549796
0.0557107871549796
0.0557107871549796
0.0557107871549796
0.0557107871549796
0.0557107871549796
0.0557107871549796
0.0520891753590167
0.0520891753590167
0.0520891753590167
0.0520891753590167
0.0520891753590167
0.0520891753590167
0.0520891753590167
0.0520891753590167
0.0520891753590167
0.0520891753590167
0.0965823431040215
0.0965823431040215
0.0965823431040215
0.0965823431040215
0.0965823431040215
0.0965823431040215
0.0965823431040215
0.0965823431040215
0.0965823431040215
0.0965823431040215
0.100837419729392
0.100837419729392
0.100837419729392
0.100837419729392
0.100837419729392
0.100837419729392
0.100837419729392
0.100837419729392
0.100837419729392
0.100837419729392
0.100833293431585
0.100833293431585
0.100833293431585
0.100833293431585
0.100833293431585
0.100833293431585
0.100833293431585
0.100833293431585
0.100833293431585
0.100833293431585
0.0915621447129336
0.0915621447129336
0.0915621447129336
0.0915621447129336
0.0915621447129336
0.0915621447129336
0.0915621447129336
0.0915621447129336
0.0915621447129336
0.0915621447129336
0.0888766633661093
0.0888766633661093
0.0888766633661093
0.0888766633661093
0.0888766633661093
0.0888766633661093
0.0888766633661093
0.0888766633661093
0.0888766633661093
0.0888766633661093
0.0720884202582745
0.0720884202582745
0.0720884202582745
0.0720884202582745
0.0720884202582745
0.0720884202582745
0.0720884202582745
0.0720884202582745
0.0720884202582745
0.0720884202582745
0.0419040326217363
0.0419040326217363
0.0419040326217363
0.0419040326217363
0.0419040326217363
0.0419040326217363
0.0419040326217363
0.0419040326217363
0.0419040326217363
0.0419040326217363
0.0145344537048866
0.0145344537048866
0.0145344537048866
0.0145344537048866
0.0145344537048866
0.0145344537048866
0.0145344537048866
0.0145344537048866
0.0145344537048866
0.0145344537048866
-0.0155698974085956
-0.0155698974085956
-0.0155698974085956
-0.0155698974085956
-0.0155698974085956
-0.0155698974085956
-0.0155698974085956
-0.0155698974085956
-0.0155698974085956
-0.0155698974085956
-0.0488576621489802
-0.0488576621489802
-0.0488576621489802
-0.0488576621489802
-0.0488576621489802
-0.0488576621489802
-0.0488576621489802
-0.0488576621489802
-0.0488576621489802
-0.0488576621489802
-0.0561199996727446
-0.0561199996727446
-0.0561199996727446
-0.0561199996727446
-0.0561199996727446
-0.0561199996727446
-0.0561199996727446
-0.0561199996727446
-0.0561199996727446
-0.0561199996727446
-0.0870850459332887
-0.0870850459332887
-0.0870850459332887
-0.0870850459332887
-0.0870850459332887
-0.0870850459332887
-0.0870850459332887
-0.0870850459332887
-0.0870850459332887
-0.0870850459332887
-0.107095484292515
-0.107095484292515
-0.107095484292515
-0.107095484292515
-0.107095484292515
-0.107095484292515
-0.107095484292515
-0.107095484292515
-0.107095484292515
-0.107095484292515
-0.0954982119640393
-0.0954982119640393
-0.0954982119640393
-0.0954982119640393
-0.0954982119640393
-0.0954982119640393
-0.0954982119640393
-0.0954982119640393
-0.0954982119640393
-0.0954982119640393
-0.046764177093534
-0.046764177093534
-0.046764177093534
-0.046764177093534
-0.046764177093534
-0.046764177093534
-0.046764177093534
-0.046764177093534
-0.046764177093534
-0.046764177093534
-0.0461198923110274
-0.0461198923110274
-0.0461198923110274
-0.0461198923110274
-0.0461198923110274
-0.0461198923110274
-0.0461198923110274
-0.0461198923110274
-0.0461198923110274
-0.0461198923110274
-0.0226044011165784
-0.0226044011165784
-0.0226044011165784
-0.0226044011165784
-0.0226044011165784
-0.0226044011165784
-0.0226044011165784
-0.0226044011165784
-0.0226044011165784
-0.0226044011165784
0.0104514687630409
0.0104514687630409
0.0104514687630409
0.0104514687630409
0.0104514687630409
0.0104514687630409
0.0104514687630409
0.0104514687630409
0.0104514687630409
0.0104514687630409
0.0432161826160955
0.0432161826160955
0.0432161826160955
0.0432161826160955
0.0432161826160955
0.0432161826160955
0.0432161826160955
0.0432161826160955
0.0432161826160955
0.0432161826160955
0.074667508369421
0.074667508369421
0.074667508369421
0.074667508369421
0.074667508369421
0.074667508369421
0.074667508369421
0.074667508369421
0.074667508369421
0.074667508369421
0.0976449061683658
0.0976449061683658
0.0976449061683658
0.0976449061683658
0.0976449061683658
0.0976449061683658
0.0976449061683658
0.0976449061683658
0.0976449061683658
0.0976449061683658
0.115565409286055
0.115565409286055
0.115565409286055
0.115565409286055
0.115565409286055
0.115565409286055
0.115565409286055
0.115565409286055
0.115565409286055
0.115565409286055
0.138447631178471
0.138447631178471
0.138447631178471
0.138447631178471
0.138447631178471
0.138447631178471
0.138447631178471
0.138447631178471
0.138447631178471
0.138447631178471
0.120318505059096
0.120318505059096
0.120318505059096
0.120318505059096
0.120318505059096
0.120318505059096
0.120318505059096
0.120318505059096
0.120318505059096
0.120318505059097
0.119108606237288
0.119108606237288
0.119108606237288
0.119108606237288
0.119108606237288
0.119108606237288
0.119108606237288
0.119108606237288
0.119108606237288
0.119108606237288
0.092833196585767
0.0928331965857671
0.0928331965857672
0.0928331965857673
0.0928331965857674
0.0928331965857676
0.0928331965857677
0.0928331965857679
0.092833196585768
0.0928331965857682
0.0615534354724197
0.0615534354724199
0.0615534354724201
0.0615534354724203
0.0615534354724206
0.0615534354724208
0.0615534354724211
0.0615534354724214
0.0615534354724217
0.0615534354724221
0.0223693128899156
0.022369312889916
0.0223693128899164
0.0223693128899169
0.0223693128899173
0.0223693128899179
0.0223693128899184
0.022369312889919
0.0223693128899197
0.0223693128899204
-0.00632793085653707
-0.00632793085653627
-0.00632793085653542
-0.0063279308565345
-0.00632793085653351
-0.00632793085653246
-0.00632793085653133
-0.00632793085653011
-0.00632793085652882
-0.00632793085652742
-0.0310206262229539
-0.0310206262229523
-0.0310206262229506
-0.0310206262229487
-0.0310206262229468
-0.0310206262229447
-0.0310206262229424
-0.03102062622294
-0.0310206262229374
-0.0310206262229346
-0.062453476178123
-0.0624534761781199
-0.0624534761781165
-0.0624534761781128
-0.062453476178109
-0.0624534761781048
-0.0624534761781003
-0.0624534761780956
-0.0624534761780905
-0.062453476178085
-0.0416606564290022
-0.0416606564289959
-0.0416606564289893
-0.0416606564289821
-0.0416606564289745
-0.0416606564289663
-0.0416606564289576
-0.0416606564289483
-0.0416606564289383
-0.0416606564289277
-0.0571964427380204
-0.0571964427380083
-0.0571964427379953
-0.0571964427379814
-0.0571964427379665
-0.0571964427379507
-0.0571964427379338
-0.0571964427379157
-0.0571964427378964
-0.0571964427378757
-0.0680266702679725
-0.068026670267949
-0.0680266702679239
-0.0680266702678971
-0.0680266702678685
-0.0680266702678379
-0.0680266702678053
-0.0680266702677706
-0.0680266702677334
-0.0680266702676938
-0.0558823502172953
-0.0558823502172502
-0.0558823502172021
-0.0558823502171508
-0.0558823502170961
-0.0558823502170378
-0.0558823502169755
-0.0558823502169092
-0.0558823502168384
-0.055882350216763
-0.0245650458508028
-0.0245650458507171
-0.0245650458506257
-0.0245650458505284
-0.0245650458504246
-0.0245650458503141
-0.0245650458501963
-0.0245650458500708
-0.0245650458499371
-0.0245650458497947
0.0133063498662622
0.0133063498664238
0.0133063498665958
0.013306349866779
0.013306349866974
0.0133063498671817
0.0133063498674028
0.0133063498676381
0.0133063498678886
0.0133063498681552
0.0349034384629751
0.034903438463277
0.0349034384635983
0.03490343846394
0.0349034384643037
0.0349034384646905
0.0349034384651019
0.0349034384655395
0.0349034384660049
0.0349034384664998
0.0565613052990425
0.056561305299602
0.0565613053001969
0.0565613053008292
0.0565613053015013
0.0565613053022157
0.0565613053029749
0.0565613053037818
0.0565613053046391
0.05656130530555
0.0891204109087922
0.0891204109098203
0.0891204109109123
0.0891204109120723
0.0891204109133042
0.0891204109146124
0.0891204109160016
0.0891204109174766
0.0891204109190426
0.0891204109207051
0.121024403406254
0.121024403408127
0.121024403410115
0.121024403412224
0.121024403414463
0.121024403416839
0.121024403419359
0.121024403422033
0.121024403424869
0.121024403427877
0.148068882884463
0.148068882887847
0.148068882891435
0.14806888289524
0.148068882899274
0.14806888290355
0.148068882908084
0.148068882912889
0.148068882917982
0.14806888292338
0.141775517035434
0.141775517041495
0.141775517047917
0.141775517054721
0.141775517061928
0.141775517069562
0.141775517077648
0.141775517086212
0.14177551709528
0.141775517104883
0.147531319154569
0.147531319165334
0.147531319176729
0.147531319188792
0.147531319201559
0.147531319215072
0.147531319229371
0.147531319244503
0.147531319260513
0.147531319277452
0.119812562466053
0.119812562485008
0.119812562505058
0.119812562526263
0.119812562548688
0.119812562572401
0.119812562597474
0.119812562623984
0.119812562652009
0.119812562681634
0.103581539488309
0.103581539521404
0.10358153955638
0.10358153959334
0.103581539632394
0.103581539673655
0.103581539717246
0.103581539763294
0.103581539811934
0.103581539863306
0.0782934319732041
0.0782934320304968
0.078293432090993
0.0782934321548665
0.0782934322222999
0.0782934322934856
0.078293432368626
0.0782934324479339
0.0782934325316335
0.0782934326199603
0.0305388946175356
0.0305388947158732
0.0305388948196207
0.0305388949290663
0.030538895044513
0.0305388951662797
0.0305388952947011
0.0305388954301295
0.030538895572935
0.0305388957235065
-0.00575142797557593
-0.00575142780822541
-0.00575142763181935
-0.00575142744588367
-0.00575142724992032
-0.00575142704340618
-0.00575142682579183
-0.00575142659650025
-0.00575142635492551
-0.00575142610043138
-0.0059906812724617
-0.00599068099009164
-0.00599068069269688
-0.00599068037950479
-0.00599068004970447
-0.00599067970244498
-0.00599067933683334
-0.00599067895193268
-0.00599067854676004
-0.00599067812028427
-0.0327134645580847
-0.032713464085705
-0.0327134635886165
-0.0327134630655714
-0.0327134625152617
-0.0327134619363156
-0.0327134613272954
-0.0327134606866936
-0.0327134600129304
-0.0327134593043498
-0.0327872754237386
-0.0327872746402346
-0.0327872738164542
-0.0327872729504016
-0.0327872720399856
-0.0327872710830157
-0.0327872700771979
-0.0327872690201295
-0.0327872679092944
-0.0327872667420579
-0.049064946638737
-0.0490649453502934
-0.0490649439967794
-0.0490649425750308
-0.049064941081736
-0.0490649395134293
-0.0490649378664842
-0.0490649361371063
-0.0490649343213255
-0.049064932414989
-0.0465661050085292
-0.0465661029078491
-0.0465661007029735
-0.0465660983889331
-0.0465660959605321
-0.0465660934123377
-0.0465660907386704
-0.0465660879335934
-0.046566084990901
-0.0465660819041075
-0.0328165324240494
-0.0328165290284152
-0.032816525467419
-0.0328165217333295
-0.03281651781807
-0.0328165137132038
-0.0328165094099193
-0.0328165048990139
-0.0328165001708778
-0.0328164952154766
0.0021013198900556
0.00210132533187703
0.00210133103379406
0.00210133700772335
0.00210134326610197
0.00210134982190894
0.00210135668868754
0.00210136388056853
0.00210137141229419
0.00210137929924339
0.0294028781719864
0.0294028868181964
0.0294028958698505
0.0294029053451436
0.0294029152630473
0.0294029256433409
0.0294029365066443
0.0294029478744514
0.0294029597691648
0.0294029722141327
0.0648138807338959
0.0648138943533863
0.0648139085992285
0.0648139234989411
0.0648139390811896
0.0648139553758321
0.0648139724139656
0.0648139902279742
0.0648140088515796
0.0648140283198924
0.107618666651241
0.107618687920128
0.107618710147937
0.107618733375892
0.107618757646895
0.107618783005589
0.107618809498426
0.107618837173735
0.107618866081791
0.107618896274889
0.122942258909387
0.122942291837928
0.1229423262213
0.12294236212067
0.122942399599632
0.122942438724299
0.122942479563396
0.122942522188352
0.122942566673406
0.122942613095706
0.122776951022844
0.122777001563248
0.122777054290876
0.122777109295612
0.122777166670817
0.122777226513455
0.122777288924222
0.122777354007678
0.122777421872386
0.122777492631055
0.156357450080335
0.156357526982369
0.156357607142852
0.156357690692589
0.156357777767313
0.156357868507856
0.156357963060329
0.1563580615763
0.156358164212989
0.156358271133455
0.175840683746455
0.17584079974804
0.17584092055968
0.175841046369875
0.175841177374034
0.175841313774709
0.175841455781835
0.175841603612977
0.175841757493584
0.175841917657255
0.146901916900149
0.14690209036469
0.146902270864719
0.14690245866921
0.14690265405672
0.1469028573157
0.146903068744818
0.146903288653291
0.146903517361222
0.146903755199952
0.143346050474073
0.143346307615193
0.143346574952222
0.143346852865159
0.14334714174715
0.143347442004896
0.143347754059081
0.14334807834481
0.143348415312054
0.143348765426117
0.107406241720229
0.107406619587533
0.107407012094339
0.107407419772132
0.107407843170224
0.107408282856299
0.107408739416961
0.107409213458307
0.107409705606509
0.107410216508416
0.0991922135348564
0.099192763970501
0.0991933352306642
0.0991939280511953
0.0991945431918508
0.09919518143699
0.099195843596289
0.0991965305054715
0.0991972430270578
0.0991979820511322
0.0606439873569129
0.060644782170421
0.0606456063300085
0.0606464608440665
0.0606473467526729
0.0606482651284763
0.0606492170776013
0.0606502037405738
0.0606512262932688
0.0606522859478787
0.0199230362057081
0.0199241738509733
0.0199253524626588
0.019926573408363
0.019927838097184
0.0199291479808264
0.0199305045547312
0.0199319093592314
0.0199333639807314
0.0199348700529121
0.0141453303602787
0.0141469444301481
0.0141486151478342
0.0141503443486886
0.0141521339217534
0.0141539858111237
0.0141559020173386
0.0141578845987991
0.014159935673214
0.0141620574190753
0.00865486010032635
0.00865712997523264
0.00865947743693613
0.00866190492238467
0.00866441493711836
0.0086670100569207
0.00866969292950013
0.00867246627620206
0.00867533289375178
0.00867829565602853
-0.0194587198099001
-0.0194555558188578
-0.0194522865803164
-0.0194489088934118
-0.0194454194707823
-0.0194418149366043
-0.0194380918245945
-0.0194342465759808
-0.0194302755374399
-0.0194261749590025
-0.031592299506462
-0.0315879282010659
-0.0315834155045445
-0.031578757258736
-0.0315739491978634
-0.0315689869462424
-0.0315638660159551
-0.0315585818044915
-0.031553129592358
-0.0315475045406528
0.00693872913646931
0.00694471487397452
0.00695088870894056
0.00695725598279896
0.00696382216899971
0.00697059287562975
0.00697757384806298
0.00698477097164166
0.00699219027438883
0.00699983792975138
-0.0154825650756581
-0.0154744415991315
-0.0154660703492219
-0.0154574445427556
-0.0154485572369728
-0.0154394013266092
-0.0154299695409502
-0.0154202544408577
-0.015410248415771
-0.0153999436806823
0.0254677751662715
0.0254787013894504
0.0254899507549563
0.0255015317763217
0.0255134531570082
0.0255257237935699
0.0255383527788353
0.0255513494051087
0.0255647231673893
0.0255784837666076
0.0509119940232661
0.0509265582391484
0.0509415396629357
0.0509569488519407
0.0509727965858002
0.0509890938697872
0.0510058519381321
0.0510230822573491
0.0510407965295697
0.0510590066958784
0.0828082291123237
0.0828274678625677
0.0828472397972583
0.0828675578466743
0.0828884351967285
0.0829098852922916
0.0829319218405071
0.0829545588140973
0.0829778104546558
0.083001691275926
0.108051511054211
0.108076694883028
0.108102553099214
0.108129101337538
0.108156355521023
0.10818433186409
0.108213046875678
0.108242517362328
0.10827276043123
0.108303793493236
0.122783585181199
0.122816251691432
0.122849762278794
0.122884135598054
0.122919390622044
0.122955546644384
0.122992623282159
0.123030640478523
0.123069618505256
0.123109577965238
0.166502071588307
0.166544057059839
0.16658708778365
0.166631185710422
0.166676373133247
0.166722672689644
0.166770107363488
0.166818700486841
0.1668684757417
0.166919457161626
0.177626369278299
0.177679836542907
0.177734584197518
0.177790637696255
0.177848022851384
0.177906765834288
0.177966893176301
0.178028431769423
0.178091408866895
0.178155852083645
0.167658887003806
0.167726346751983
0.167795357636599
0.167865948720857
0.167938149429662
0.168011989549159
0.168087499226106
0.168164708967082
0.16824364963752
0.168324352460562
0.206639663960357
0.206723986182083
0.206810166357955
0.20689823712687
0.206988231476941
0.207080182743213
0.207174124605179
0.207270091084082
0.207368116540011
0.207468235668779
0.18196790110139
0.182072312989249
0.182178924617208
0.182287771988327
0.182398891422416
0.182512319551552
0.18262809331534
0.182746249955939
0.182866827012833
0.182989862317358
0.146624250553287
0.146752316985559
0.146882956851955
0.147016209091296
0.147152112902984
0.147290707739954
0.147432033301342
0.147576129524891
0.14772303657907
0.147872794854917
0.109227841107424
0.109383423847493
0.109541980231902
0.109703551454677
0.109868178887329
0.110035904068966
0.110206768696105
0.110380814612196
0.11055808379684
0.110738618354714
0.0861697040335014
0.086356896094975
0.0865474804788722
0.086741499673374
0.0869389962318268
0.087140012759852
0.0873445919021518
0.0875527763290114
0.0877646087224977
0.0879801317623555
0.0613429690100077
0.0615660013002183
0.0617928521165275
0.0620235639823144
0.0622581793435974
0.0624967405531319
0.0627392898542126
0.0629858693641831
0.0632365210576551
0.0634912867494394
0.0397523944810549
0.0400155128876387
0.0402828696032085
0.0405545056270176
0.0408304617089525
0.0411107783307989
0.0413954956872426
0.04168465366661
0.0419782918313525
0.0422764493982793
0.0128861897125237
0.0131935022513714
0.0135054495676456
0.0138220692930703
0.0141433986113048
0.0144694742367823
0.0148003323933362
0.0151360087926223
0.0154765386123425
0.0158219564742797
0.00256222676275543
0.00291752223987325
0.0032778060666757
0.00364311041806015
0.00401346680058484
0.00438890602952514
0.00476945820579572
0.0051551526927496
0.00554601809286226
0.00594208222431067
0.00615160700922419
0.00655814880301832
0.00696996784131747
0.00738708856915053
0.00780953452892497
0.0082373283365926
0.00867049165778414
0.00910904518392484
0.00955300860834239
0.0100024006023787
0.0123592432060668
0.0128195441460956
0.0132853232992958
0.0137565950107006
0.0142333724844117
0.0147156677599986
0.0152034916889889
0.0156968539114673
0.0161957628327925
0.0167002256004484
0.0529396550912032
0.0534552418476306
0.0539763961164031
0.0545031197851794
0.0550354133704938
0.0555732759957045
0.0561167053691754
0.0566656977627057
0.0572202479902223
0.0577803493867498
0.0606328627526676
0.0612040404733001
0.0617807402887788
0.0623629494142918
0.0629506534856625
0.0635438365402981
0.0641424809985243
0.0647465676453158
0.0653560756124408
0.0659709823610339
0.110733726154109
0.111359356082046
0.111990306983521
0.112626549471954
0.113268052409948
0.113914782894743
0.114566706244208
0.115223785983383
0.115885983831573
0.116553259690026
0.247972834633067
0.247251706592092
0.246518235650983
0.245772669887648
0.245015260443764
0.244246261384301
0.24346592955605
0.242674524445282
0.24187230803462
0.241059544659263
0.241010832248779
0.240177776637837
0.239334979737841
0.238482713847115
0.237621252891576
0.236750872279287
0.235871848755109
0.234984460255554
0.234088985763952
0.233185705166033
0.275543909517077
0.274625859254448
0.273700846521314
0.272769153380723
0.271831062085833
0.270886854940102
0.269936814158597
0.268981221730492
0.26802035928287
0.267054507945896
0.27790871506308
0.276933726685035
0.275954588500974
0.274971578335827
0.273984972867206
0.272995047500627
0.272002076246686
0.271006331600251
0.270008084421743
0.269007603820572
0.286851709193178
0.285847561501445
0.284841976077262
0.283835213905687
0.282827533672449
0.281819191661591
0.280810441655649
0.279801534838444
0.278792719700504
0.277784241947176
0.271241304850527
0.270234227398647
0.269228206858444
0.268223476930555
0.267220268112448
0.266218807623333
0.265219319331947
0.264222023687263
0.263227137652112
0.262234874639753
0.288545375454715
0.287558984229932
0.286575834380179
0.285596124545131
0.284620049542056
0.283647800320141
0.282679563917763
0.281715523422728
0.280755857935432
0.279800742534965
0.248917652351283
0.247972146124449
0.247031690798422
0.246096445086026
0.245166563552595
0.244242196599251
0.243323490448965
0.242410587135371
0.241503624494296
0.240602736157974
0.216231896784001
0.215343541126466
0.214461635430528
0.213586296508663
0.212717636979824
0.211855765278987
0.211000785669078
0.210152798255276
0.209311899001624
0.208478179749899
0.182041416681618
0.181222316577612
0.180410647488901
0.179606485000436
0.178809900701441
0.178020962216786
0.177239733240254
0.176466273569648
0.175700639143679
0.174942882080579
0.142593450016041
0.141851588954466
0.141117739098366
0.140391937702653
0.139674218418664
0.138964611341896
0.138263143061059
0.137569836708382
0.136884712011113
0.136207785344156
0.0964817333999539
0.0958212387785439
0.0951689717402612
0.0945249357976525
0.0938891313890771
0.0932615559369223
0.0926422039065462
0.0920310668658894
0.0914281335457001
0.0908333899003168
0.0726186165994807
0.072040199367953
0.071469913630813
0.070907734853808
0.0703536360366359
0.0698075877759345
0.069269558328457
0.068739513674383
0.0682174175807151
0.0677032316647154
0.0576872373965444
0.0571887484057853
0.0566980421799895
0.0562150723709563
0.0557397907968875
0.0552721475050993
0.0548120908344663
0.0543595674775545
0.0539145225424064
0.0534768996139413
0.0505142533958734
0.050091299447467
0.049675589729214
0.049267062338573
0.0488656541498598
0.0484713008726102
0.0480839371093274
0.0477034964125849
0.0473299113414598
0.0469631135172688
0.0219518050059504
0.0215983730628695
0.0212515181505214
0.0209111686817824
0.020577252399186
0.0202496964260062
0.0199284273164972
0.0196133711052729
0.0193044533558114
0.0190015992080689
-0.000402976734296359
-0.000693929720172168
-0.000979045763053646
-0.00125840095915154
-0.00153207160388948
-0.00180013414986389
-0.00206266516576349
-0.00231974129625305
-0.00257143922282678
-0.0028178356256356
0.0504895360622452
0.0502535128568917
0.0500225615099829
0.0497966057089166
0.0495755693186239
0.0493593764138694
0.0491479513105755
0.0489412185961741
0.0487391031589876
0.0485415302166456
0.0558068599187886
0.0556181490725823
0.0554337586197531
0.0552536153602142
0.0550776465509925
0.0549057799289841
0.0547379437327935
0.0545740667236655
0.0544140782055212
0.0542579080441063
0.0976785585065209
0.0975298169936012
0.0973846869840151
0.0972431007649495
0.0971049912682539
0.0969702920845102
0.0968389374763012
0.0967108623906888
0.0965860024709177
0.0964642940673572
0.124167851726077
0.124052258284783
0.123939629751849
0.123829905400832
0.123723025256203
0.123618930100028
0.123517561477983
0.123418861704737
0.123322773868694
0.123229241836136
0.143970198613332
0.143881612915218
0.143795419319211
0.143711564832774
0.143629997253296
0.143550665168887
0.143473517958662
0.143398505792545
0.143325579630598
0.143254691221891
0.165030468609233
0.164963514101977
0.164898457311405
0.164835253122732
0.164773857198208
0.164714225973572
0.164656316654137
0.164600087210546
0.164545496374198
0.164492503632365
0.209517192896167
0.209467277802489
0.209418843747173
0.209371853186406
0.20932626930364
0.209282056003126
0.209239177903217
0.209197600329485
0.209157289307618
0.209118211556157
0.202204913441795
0.20216820512076
0.202132634307579
0.20209817041617
0.202064783514566
0.202032444316778
0.20200112417454
0.201970795068962
0.20194142960209
0.20191300098839
0.209439888511789
0.209413255654487
0.209387482882062
0.209362545772178
0.209338420471429
0.209315083686528
0.209292512675459
0.209270685238625
0.209249579709985
0.209229174948183
0.221467365588355
0.221448300990637
0.22142987679529
0.221412073871252
0.22139487356802
0.221378257706903
0.22136220857231
0.221346708903091
0.221331741883917
0.221317291136723
0.201876334135119
0.201862868504253
0.201849872549977
0.201837331558838
0.20182523121276
0.201813557580885
0.201802297111482
0.201791436623947
0.201780963300878
0.20177086468024
0.160790759086681
0.160781373867638
0.160772328020127
0.160763610427044
0.160755210288845
0.160747117116278
0.160739320723205
0.16073181121953
0.160724579004226
0.160717614758465
0.147725896426007
0.147719441257919
0.147713227728949
0.147707247582452
0.147701492811204
0.147695955651161
0.147690628575326
0.147685504287722
0.147680575717479
0.147675836013013
0.118041069295782
0.118036687616853
0.118032475508154
0.118028426939254
0.118024536071536
0.118020797253014
0.11801720501326
0.118013754058424
0.118010439266366
0.118007255681883
0.0879945546169462
0.0879916192264832
0.0879888011333726
0.0879860960044156
0.0879834996509623
0.0879810080247182
0.0879786172136407
0.0879763234379239
0.0879741230460682
0.0879720125110311
0.0659643193079599
0.0659623783844777
0.0659605174460764
0.0659587334265297
0.0659570233658791
0.0659553844069568
0.065953813791939
0.0659523088589135
0.0659508670384423
0.0659494858500985
0.0270555940590773
0.027054327032067
0.0270531136942912
0.0270519518850657
0.0270508395137612
0.0270497745553139
0.0270487550453213
0.0270477790746093
0.0270468447831351
0.0270459503530595
0.0233922888034365
0.0233914687703989
0.0233906833122563
0.0233899306862237
0.0233892091360743
0.023388516874349
0.0233878520611903
0.0233872127791199
0.0233865970029554
0.0233860025639207
0.00968378094453246
0.00968322187685387
0.0096826763079058
0.00968214097677497
0.0096816121666984
0.00968108560369312
0.00968055633676244
0.00968001859664365
0.00967946562964228
0.0096788895026344
0.0369769042113113
0.0369762520676835
0.036975543408778
0.0369747628902964
0.0369738924058431
0.0369729106050963
0.0369717923390466
0.0369705080231494
0.0369690229084391
0.0369672962498619
0.0563486005977148
0.056346239775359
0.0563434690915673
0.0563402130253995
0.0563363839308044
0.056331880321851
0.0563265849612358
0.0563203627372716
0.0563130583148004
0.0563044935460065
0.0653521594193032
0.0653404337865163
0.0653267467279842
0.0653107977212933
0.0652922464782634
0.0652707087004929
0.0652457515470148
0.065216888820994
0.0651835758878085
0.065145204343006
0.0995092583769679
0.0994586613406544
0.099400741375456
0.099334577728746
0.0992591566368768
0.0991733653172921
0.0990759860721651
0.0989656905954817
0.098841034586571
0.0987004527841183
0.133484386738087
0.133306752298883
0.13310772985761
0.132885233637943
0.132637043088881
0.132360803387954
0.13205402741603
0.131714099373178
0.131338280203188
0.13092371498952
0.160111346454876
0.159610310841361
0.159061375962902
0.158461341984768
0.157806964678504
0.15709497734235
0.156322115388707
0.155485143586517
0.154580885906735
0.153606257875881
0.182339945700759
0.181215865548969
0.18001306880909
0.178729204953555
0.17736220772505
0.175910337826749
0.174372226077469
0.172746916542281
0.171033909106739
0.16923320092563
0.18237425429124
0.180400321425367
0.178342047734485
0.176201789976424
0.173982570875251
0.171688100684601
0.169322793242277
0.166891775950765
0.164400893167209
0.161856702546691
0.180558793298529
0.177930449987401
0.175272601833041
0.172594470512492
0.169905856626821
0.167217088877466
0.164538965524802
0.161882688476538
0.159259790472909
0.156682055952715
0.142967406478901
0.140515930434896
0.138145610620914
0.135868347098005
0.133695829069153
0.131639435825048
0.129710138098854
0.127918401018053
0.126274089849063
0.124786379719069
0.13711244778308
0.135962285058348
0.134991288671123
0.134205089191905
0.133608273618128
0.13320434085716
0.132995667630847
0.132983485270095
0.133167867720922
0.133547730930861
0.128046824005407
0.128809829735007
0.129758279841592
0.130886676977544
0.132188528539486
0.133656409329196
0.135282032611606
0.137056328642126
0.138969529650426
0.141011260200278
0.107808712714698
0.110074421496683
0.112434847853288
0.114878156793723
0.117392397946036
0.119965604094995
0.12258588723544
0.125241531194603
0.127921079968167
0.130613421017755
0.108140119016597
0.110826462764307
0.113495066773967
0.116136904734142
0.118743616605631
0.121307552582844
0.12382181015891
0.126280264525122
0.128677592646096
0.13100929145376
0.122594519354136
0.124784789705504
0.126900946839886
0.128941852177339
0.130907211099244
0.132797569426754
0.134614308977106
0.136359643007871
0.138036612341321
0.139649082928787
0.0896678977138243
0.0911662705764106
0.0926167051168938
0.0940263958698136
0.0954033945226141
0.0967566285554239
0.0980959246148013
0.0994320366595297
0.100776678778059
0.102142562430784
0.0802904412660431
0.0817411416580783
0.0832576314781222
0.0848570552347932
0.0865577877634091
0.0883794839531765
0.0903431266816645
0.0924710714216432
0.0947870858385597
0.0973163825617221
0.0845543886017307
0.087591776916151
0.0909269391503102
0.0945909891832472
0.0986164764251206
0.103037334214448
0.10788880657561
0.11320735127091
0.119030517208135
0.125396794436765
0.102705283964837
0.110276093447349
0.118509189467947
0.127444730252633
0.137122610324375
0.147582124720519
0.158861602352481
0.170998009854071
0.184026527842614
0.197980102119765
0.220363575348648
0.236254788640089
0.253151693294369
0.271073429901253
0.290034416231837
0.310043835703999
0.331105135418239
0.353215540787532
0.376365594121419
0.400538724767054
0.440114002231983
0.466253217945156
0.493319458579141
0.521264304671733
0.550030816862136
0.579553454174895
0.609758073922703
0.640562018325491
0.671874292023437
0.703595833618283
0.743415144662637
0.775627708198747
0.807908117826196
0.840129686547828
0.872160453563352
0.903864015538173
0.935100437520576
0.965727235857574
0.995600424141536
1.02457561199257
1.07329235374271
1.10004248453066
1.12547055628127
1.14944219247516
1.1718284731429
1.19250708554167
1.21136343457868
1.22829169891832
1.24319581918225
1.25599040534734
1.2770631212774
1.28542911600873
1.29150104100424
1.29524324690296
1.29663370205451
1.29566420855697
1.29234048275279
1.28668209907671
1.27872229802667
1.26850766089222
1.29273443495946
1.27820083978025
1.26162705133325
1.24310728804922
1.2227456983546
1.20065538592796
1.17695736468262
1.15177945695719
1.12525514890715
1.09752241737519
1.09122866877243
1.06150504694155
1.0310020167705
0.999863712771232
0.968232958033695
0.936250207843666
0.904052554560696
0.87177280294531
0.839538623819413
0.807471792569259
0.814875241000398
0.783481585682884
0.752578986301906
0.722259866458437
0.692608347698261
0.663700054477642
0.635602010535928
0.60837262266238
0.582061746900738
0.556710831421506
0.56852675855973
0.545187605364575
0.522884749450618
0.501628733613631
0.481423315615489
0.462265921703317
0.444148125160115
0.427056142466126
0.410971339972774
0.395870744397344
0.39283322280611
0.379617295110663
0.367295652211162
0.355832937644402
0.345191867106236
0.335333651320855
0.326218391535234
0.317805445649663
0.310053763586963
0.302922191064378
0.293041244763229
0.287027339229035
0.281512015707722
0.276456107786806
0.27182139477569
0.267570724612869
0.263668111472051
0.260078810123038
0.256769369246199
0.253707665997586
0.280676429987514
0.278019224183828
0.275521472237376
0.273156418333379
0.270898608933863
0.268723863664505
0.266609243138751
0.26453301555411
0.262474623731168
0.26041465408819
0.214876023137523
0.212759096922768
0.210588958526762
0.208350538720307
0.206029824470069
0.203613859905569
0.20109075411341
0.19844969564737
0.195680973451546
0.192776003710914
0.175015375040128
0.171816832777613
0.168463397455824
0.164951354970877
0.161278313278725
0.157443245900936
0.153446533933433
0.149290005131637
0.144976968618071
0.14051224375558
0.108166419972265
0.103418916829613
0.0985434163278807
0.093550901828696
0.0884538758135732
0.083266326217475
0.078003678790361
0.0726827349106569
0.0673215944838711
0.061939563783706
0.0282010914051567
0.0228394742093131
0.0175209799881051
0.0122685261571171
0.0071055616953784
0.0020558951844295
-0.00285648644704278
-0.00760760674033675
-0.012173694172383
-0.0165313802021309
-0.0437943682089898
-0.0476677540117315
-0.0512670381892949
-0.0545724377526634
-0.0575655373854027
-0.0602294609351363
-0.0625490304622496
-0.0645109107786571
-0.066103737575702
-0.0673182274394448
-0.126649451849177
-0.127088172528517
-0.127133990738702
-0.126786638490391
-0.126048164861627
-0.124922915976844
-0.123417492494968
-0.121540685193002
-0.119303389528419
-0.116718500345147
-0.127788087155566
-0.12455405762298
-0.121021796210346
-0.117210799914796
-0.113141798371216
-0.108836566579858
-0.104317731624747
-0.0996085757726263
-0.0947328383338202
-0.0897145186212125
-0.0995087353373827
-0.0942773260905645
-0.0889749851478858
-0.0836248797823741
-0.0782495429626313
-0.0728707253747481
-0.0675092610593257
-0.0621849476396949
-0.056916441879326
-0.0517211710673364
-0.0299153320408731
-0.0249135486062045
-0.020029260357916
-0.0152744115998912
-0.0106595129768731
-0.00619364580230961
-0.00188447973966735
0.00226169717594779
0.00623993729075578
0.0100465820532662
0.0153619248983504
0.0188192518974134
0.0221011056630731
0.0252083148635471
0.0281426347977951
0.0309066625632033
0.0335037509125122
0.0359379218777753
0.0382137811560248
0.0403364341600191
0.0572772389373505
0.0591103902789666
0.0608078515779172
0.0623759469913294
0.0638211302620854
0.0651499241159026
0.06636886483717
0.0674844521421692
0.0685031043875151
0.0694311190783084
0.0940193873739638
0.0947843696398696
0.0954765638216905
0.0961014904157481
0.0966644257389342
0.097170390399094
0.09762414144171
0.0980301678389291
0.0983926889822863
0.0987156558413406
0.138279025086225
0.138533682071781
0.138759071825259
0.138958125144547
0.139133538983897
0.139287787093545
0.139423131311287
0.139541633296066
0.139645166515772
0.139735428323456
0.156503311762852
0.156571478267602
0.15663052792951
0.156681571543805
0.156725601142051
0.156763500247485
0.156796053598735
0.156823956315169
0.156847822488161
0.156868193192252
0.175994673097105
0.176009420617385
0.176021929295651
0.176032516864311
0.176041459689992
0.176048997554127
0.176055337976256
0.176060660108993
0.176065118234195
0.176068844889949
0.210548526124238
0.210551114103722
0.210553264105259
0.210555046582825
0.210556521334868
0.21055773899534
0.210558742336886
0.210559567406352
0.210560244511215
0.210560799073951
0.23253030830405
0.232530678096557
0.232530979182741
0.23253122386036
0.232531422326612
0.232531583017652
0.232531712896856
0.232531817698932
0.232531902136059
0.232531970071506
0.245572218695193
0.245572262527015
0.245572297697231
0.245572325912701
0.24557234855734
0.245572366750769
0.245572381396831
0.24557239322361
0.245572402816366
0.245572410644568
0.265456435756037
0.265456441107
0.265456445608865
0.265456449452163
0.265456452788267
0.265456455737248
0.265456458394207
0.26545646083438
0.265456463117234
0.265456465289749
0.244920773436398
0.244920775491812
0.244920777526588
0.244920779559177
0.244920781604292
0.244920783673733
0.244920785777038
0.244920787921998
0.244920790115057
0.244920792361627
0.244427332921621
0.244427335288508
0.244427337721166
0.244427340222864
0.244427342796636
0.244427345445349
0.244427348171763
0.244427350978568
0.244427353868418
0.244427356843959
0.239384080568224
0.239384083723138
0.239384086971799
0.239384090316973
0.239384093761484
0.239384097308218
0.239384100960128
0.239384104720239
0.239384108591655
0.239384112577557
0.186223490701568
0.186223494926327
0.186223499275631
0.186223503753014
0.186223508362104
0.186223513106626
0.186223517990407
0.186223523017376
0.186223528191565
0.186223533517119
0.164764089230596
0.164764094871755
0.164764100677386
0.164764106652094
0.164764112800608
0.164764119127783
0.164764125638602
0.164764132338184
0.164764139231781
0.164764146324786
0.128508438113635
0.12850844562221
0.128508453347246
0.128508461294728
0.128508469470803
0.128508477881776
0.128508486534122
0.128508495434484
0.128508504589679
0.128508514006704
0.0999225521402848
0.0999225621026959
0.0999225723490433
0.0999225828870836
0.0999225937247755
0.0999226048702845
0.0999226163319882
0.0999226281184812
0.099922640238581
0.0999226527013326
0.10421581322521
0.104215826401341
0.104215839948684
0.104215853877252
0.104215868197318
0.104215882919416
0.104215898054349
0.104215913613199
0.104215929607329
0.104215946048392
0.0698952982562422
0.0698953156273244
0.0698953334821079
0.0698953518334757
0.0698953706946373
0.069895390079136
0.0698954100008569
0.0698954304740352
0.0698954515132643
0.0698954731335045
0.0601172804558455
0.0601173032844993
0.0601173267413336
0.0601173508428644
0.06011737560602
0.0601174010481505
0.0601174271870377
0.0601174540409051
0.0601174816284285
0.0601175099687461
0.0664828251205646
0.0664828550257902
0.0664828857441097
0.0664829172966218
0.0664829497049444
0.0664829829912258
0.0664830171781577
0.0664830522889872
0.0664830883475296
0.0664831253781816
0.0853822838754713
0.0853823229259246
0.0853823630252998
0.0853824042004546
0.0853824464788976
0.0853824898888026
0.0853825344590241
0.0853825802191122
0.0853826271993289
0.0853826754306637
0.117858827883176
0.117858878712709
0.117858930890859
0.117858984451694
0.117859039430094
0.117859095861769
0.117859153783282
0.117859213232059
0.117859274246419
0.117859336865584
0.135910183254367
0.135910249204545
0.135910316882846
0.135910386332328
0.13591045759706
0.135910530722145
0.135910605753743
0.135910682739091
0.135910761726532
0.135910842765534
0.21899102845515
0.218647433840561
0.218306394845503
0.217967909527615
0.217631975674234
0.217298590805696
0.216967752178645
0.216639456789364
0.216313701377111
0.215990482427469
0.233564120730375
0.233245963164831
0.232930330030276
0.232617216831313
0.232306618835772
0.231998531078115
0.231692948362844
0.231389865267917
0.231089276148161
0.230791175138701
0.26470969219122
0.264416548946021
0.2641258749325
0.263837663441211
0.263551907560127
0.263268600178071
0.262987733988133
0.262709301491088
0.262433294998818
0.262159706637713
0.269462382587947
0.269193606143423
0.268927223130341
0.268663224967134
0.268401602903708
0.268142348024811
0.267885451253391
0.267630903353944
0.267378694935856
0.267128816456726
0.28901032375086
0.288765075931874
0.288522128547027
0.288281471479804
0.288043094478351
0.287806987158717
0.287573139008092
0.287341539388017
0.287112177537587
0.286885042576628
0.300639485085929
0.300416770802133
0.300196250083242
0.299977911603478
0.29976174393343
0.299547735543127
0.299335874805085
0.299126149997335
0.298918549306432
0.298713060830436
0.282786173857793
0.282584873766621
0.282385649683107
0.282188489380748
0.281993380559138
0.281800310846813
0.281609267804077
0.281420238925797
0.281233211644179
0.281048173331519
0.267872194709665
0.267691096225742
0.267511948495289
0.267334738677925
0.267159453886712
0.266986081190751
0.266814607617743
0.26664502015653
0.266477305759604
0.266311451345591
0.251632174225226
0.251470000409697
0.251309647154171
0.251151101266083
0.250994349530994
0.250839378714911
0.250686175566569
0.250534726819688
0.250385019195202
0.250237039403457
0.22350104240674
0.223356478379981
0.223213602275022
0.223072400781262
0.222932860588067
0.222794968386793
0.222658710872781
0.222524074747321
0.222391046719586
0.222259613508537
0.179386571446441
0.17925828807415
0.179131559752768
0.179006373258871
0.178882715387905
0.178760572955916
0.178639932801249
0.178520781786216
0.178403106798734
0.178286894753942
0.163063958790261
0.162950633493013
0.162838732062847
0.162728241539301
0.162619148996746
0.162511441545831
0.162405106334882
0.16230013055129
0.162196501422859
0.162094206219129
0.145956502686166
0.14585683731385
0.145758467938085
0.145661382008028
0.14556556702077
0.145471010522494
0.145377700109598
0.145285623429805
0.145194768183234
0.145105122123447
0.127511808446796
0.127424544240133
0.127338452811705
0.127253522138813
0.127169740257052
0.127087095261202
0.127005575306095
0.126925168607456
0.126845863442719
0.126767648151821
0.0797656891715468
0.0796896189019524
0.0796146039085637
0.0795406327887517
0.0794676942059829
0.0793957768904676
0.0793248696397841
0.0792549613194803
0.0791860408636525
0.0791180972755018
0.107092934432876
0.10702691186875
0.106961833601764
0.106897688916661
0.10683446716974
0.106772157789286
0.106710750275973
0.10665023420325
0.10659059921771
0.106531835039426
0.112925053678237
0.112868000570247
0.112811787873812
0.112756405606012
0.112701843858845
0.112648092799462
0.112595142670374
0.112542983789653
0.112491606551105
0.112441001424427
0.115013012307964
0.114963923118396
0.114915577906499
0.114867967446804
0.11482108259028
0.114774914264398
0.114729453473171
0.11468469129719
0.114640618893633
0.114597227496269
0.124806873161323
0.124764817783916
0.124723417573323
0.124682664069381
0.124642548888303
0.124603063722595
0.124564200340958
0.124525950588182
0.12448830638502
0.124451259728059
0.167961822935863
0.167925947663648
0.167890646380866
0.167855911385856
0.167821735051943
0.167788109827242
0.167755028234436
0.167722482870563
0.167690466406776
0.167658971588105
0.194382974492357
0.194352501493232
0.194322528814989
0.194293049495545
0.194264056645335
0.194235543447025
0.194207503155201
0.194179929096055
0.194152814667072
0.194126153336694
0.212201679642912
0.21217590519723
0.212150564677853
0.212125651833642
0.212101160482672
0.212077084511861
0.212053417876599
0.212030154600367
0.212007288774346
0.211984814557032
0.248657502337312
0.248635794080143
0.248614460307031
0.24859349544169
0.248572893973111
0.248552650455141
0.248532759506054
0.248513215808127
0.248494014107203
0.248475149212255
0.271110235309006
0.271092028703256
0.271074143704775
0.271056575370626
0.271039318818776
0.271022369227633
0.27100572183559
0.270989371940569
0.270973314899557
0.27095754612814
0.297035663881718
0.297020458128319
0.297005527238207
0.296990866856692
0.296976472685337
0.296962340481487
0.296948466057791
0.296934845281728
0.296921474075131
0.296908348413709
0.296562106710091
0.296549460279262
0.296537047639216
0.296524864976384
0.296512908528686
0.296501174585044
0.296489659484909
0.29647835961778
0.296467271422724
0.296456391387904
0.281893607171062
0.281883133115177
0.281872856973793
0.281862775426674
0.281852885200295
0.281843183067373
0.281833665846392
0.281824330401131
0.281815173640197
0.281806192516553
0.289143281577303
0.289134642762234
0.289126170704835
0.289117862530847
0.28910971540805
0.289101726545802
0.289093893194585
0.289086212645546
0.289078682230046
0.289071299319209
0.267892546014935
0.267885450383601
0.267878494604395
0.26787167620302
0.267864992742716
0.267858441823826
0.267852021083357
0.267845728194547
0.267839560866437
0.267833516843438
0.229790177707503
0.229784373667336
0.229778686373518
0.229773113707725
0.229767653584908
0.229762303952876
0.229757062791891
0.229751928114257
0.229746897963922
0.229741970416073
0.204322891542045
0.204318163547708
0.2043135325649
0.204308996789825
0.204304554447965
0.204300203793704
0.204295943109944
0.204291770707729
0.204287684925875
0.204283684130593
0.171813416315022
0.171809580699283
0.171805825329489
0.171802148677804
0.171798549241987
0.171795025545041
0.171791576134858
0.171788199583881
0.171784894488761
0.171781659470013
0.142130103980511
0.142127005069856
0.142123972236993
0.142121004194583
0.142118099677515
0.142115257442575
0.142112476268139
0.142109754953854
0.14210709232033
0.142104487208835
0.102355465291794
0.102352971829268
0.102350532533491
0.102348146325352
0.102345812144911
0.102343528951111
0.102341295721493
0.102339111451916
0.102336975156278
0.10233488586624
0.117871434301226
0.117869436187072
0.117867482277383
0.117865571672184
0.11786370348794
0.117861876857291
0.1178600909288
0.117858344866707
0.117856637850676
0.11785496907555
0.0917323061813772
0.091730711532117
0.0917291527969798
0.0917276292291449
0.0917261400957918
0.0917246846778731
0.0917232622698889
0.0917218721796654
0.0917205137281349
0.0917191862491189
0.104710813520163
0.10470954603813
0.104708307605282
0.104707097604881
0.104705915432031
0.104704760493476
0.1047036322074
0.104702530003231
0.104701453321442
0.104700401613358
0.129433851039641
0.129432847675393
0.129431867702024
0.129430910612359
0.12942997590913
0.129429063104784
0.129428171721304
0.129427301290019
0.129426451351422
0.129425621454981
0.157488555284349
0.157487764155602
0.15748699176941
0.157486237709273
0.157485501566718
0.157484782941103
0.157484081439417
0.157483396676067
0.15748272827267
0.157482075857831
0.159249020438829
0.159248398913714
0.159247792302554
0.15924720025951
0.159246622444468
0.159246058522752
0.159245508164802
0.159244971045847
0.159244446845534
0.159243935247551
0.201276514202238
0.201276026873974
0.201275551218927
0.20127508693235
0.201274633711034
0.201274191252665
0.201273759255113
0.201273337415664
0.201272925430161
0.20127252299207
0.222521728981861
0.222521344704207
0.222520969029228
0.222520601629435
0.222520242168627
0.222519890300202
0.222519545665295
0.222519207890732
0.222518876586758
0.222518551344549
0.278048940795114
0.278048626359608
0.278048316615976
0.278048011048605
0.278047709105944
0.278047410196038
0.278047113681629
0.278046818874767
0.278046525030893
0.27804623134235
0.286081827847092
0.286081531757567
0.286081232947147
0.286080930277471
0.286080622504048
0.286080308265096
0.286079986069356
0.286079654282792
0.286079311114112
0.286078954598982
0.296523392544992
0.296523002664489
0.296522592327062
0.296522158689044
0.296521698631786
0.29652120873582
0.296520685252896
0.296520124075742
0.296519520705399
0.296518870215958
0.2870757772364
0.287075015830201
0.2870741895704
0.287073291412763
0.287072313664729
0.287071247930772
0.287070085053825
0.287068815052559
0.287067427054264
0.287065909223136
0.291395270119398
0.291393452874851
0.291391463720061
0.291389286148993
0.291386902256296
0.291384292632814
0.291381436254769
0.291378310366357
0.291374890355533
0.291371149622731
0.285417953279294
0.285413482653363
0.285408598158094
0.285403263781885
0.285397440755512
0.285391087373992
0.285384158809995
0.285376606918722
0.285368380034122
0.285359422756386
0.284944557069836
0.284933956756342
0.28492243519144
0.284909919740394
0.284896332841464
0.284881591741698
0.28486560822463
0.284848288330166
0.284829532067024
0.284809233118131
0.240776827167253
0.240753097080763
0.240727464361811
0.240699794322122
0.240669944388846
0.240637763780708
0.240603093182217
0.240565764417007
0.240525600121495
0.240482413420125
0.208182718447131
0.208132886654954
0.208079411564265
0.208022065086117
0.207960608071385
0.207894790028055
0.207824348851899
0.207749010572643
0.207668489117827
0.207582486096645
0.182692118126768
0.182594206582845
0.182489842578686
0.182378676773125
0.182260346811706
0.182134477283162
0.182000679714076
0.181858552604579
0.1817076815079
0.18154763915664
0.150494240073468
0.15031452305999
0.150124278089308
0.149923028908075
0.149710287873444
0.149485556418435
0.149248325583057
0.148998076613583
0.148734281632184
0.148456404379017
0.129589616291654
0.129281936345401
0.128958523601312
0.128618817202603
0.128262252765767
0.127888263588873
0.127496281940386
0.127085740428487
0.126656073450527
0.126206718721851
0.117508890719189
0.117018495019047
0.116506761074142
0.115973156698746
0.115417161805098
0.114838270369523
0.114235992460781
0.113609856326342
0.112959410531818
0.112284226148263
0.10130804472075
0.100582197577152
0.0998304825574743
0.0990525833738311
0.0982482176804861
0.097417139411077
0.0965591411136755
0.0956740562748096
0.0947617616232041
0.0938221794036473
0.10435947830817
0.103365280871945
0.102343857779557
0.101295335129663
0.100219895103333
0.0991177778428376
0.0979892832270437
0.096834772532546
0.0956546699696964
0.0944494640828136
0.100038206177421
0.098784522723876
0.0975075993281517
0.0962081927923919
0.0948871288567476
0.0935453025734125
0.0921836784779799
0.0908032905504669
0.0894052419590024
0.0879907045798887
0.104929525791479
0.103485797519296
0.102029500073234
0.100562070714334
0.0990850094938436
0.0975998773457152
0.0961082939355781
0.0946119352672952
0.0931125310493006
0.0916118618240259
0.135302286512565
0.133804616493651
0.132311295939813
0.130824275463548
0.12934553879863
0.127877098640048
0.126420992301377
0.124979277201698
0.123554026195126
0.122147322757047
0.144814251152402
0.143450910939308
0.142112382481013
0.140800741274966
0.139518047773398
0.138266342051396
0.137047638451955
0.135863920227452
0.134717134197317
0.133609185441896
0.152544064080008
0.151519311986075
0.150538809877619
0.149604244245445
0.148717234556864
0.14787932858698
0.147091997924236
0.146356633668495
0.145674542339251
0.145046942010846
0.172513275099803
0.171997939364764
0.171540183269668
0.171140837541134
0.170800629068447
0.170520178702199
0.170299999370065
0.17014049451778
0.170041956882015
0.170004567600454
0.220543825553699
0.220628827596896
0.220774848043344
0.220981619584522
0.221248764005846
0.221575793350237
0.22196211141539
0.222407015578479
0.222909698940709
0.223469252782732
0.223302543866866
0.223972719297891
0.224696457121771
0.22547247172606
0.226299392219237
0.227175766496612
0.228100065522458
0.229070687811206
0.230085964089837
0.231144162123046
0.209866408332653
0.211005026290089
0.212181041817221
0.213392521669535
0.214637495536707
0.215913961438989
0.217219891150209
0.218553235628104
0.219911930433042
0.221293901116623
0.239968675240001
0.241390960937567
0.242830292176732
0.244284607141301
0.245751859890765
0.24723002521436
0.248717103344457
0.250211124517083
0.251710153368398
0.253212293157063
0.254551888340897
0.256054734276251
0.257555272093005
0.259051797993874
0.260542665033302
0.262026286149244
0.263501136983353
0.264965758489046
0.266418759328082
0.267858818057414
0.241090782515179
0.242501281974278
0.243895313157441
0.245271852001409
0.246629952266091
0.247968746561108
0.249287447204435
0.250585346922737
0.25186181940371
0.253116319711412
0.216944124745012
0.21815337274005
0.219339504357275
0.220502301995351
0.221641629873168
0.222757433882257
0.223849741391767
0.224918661019737
0.22596438238436
0.22698717584891
0.206402584012742
0.20738065452802
0.208337090339183
0.20927248257901
0.210187502217473
0.211082900041376
0.211959506714743
0.212818232930325
0.213660069661873
0.214486088526005
0.161019157267293
0.161817080339959
0.16260288967641
0.163377985535501
0.164143852518595
0.164902060722585
0.165654267037098
0.166402216586241
0.167147744313957
0.167892776710725
0.170266909963423
0.171017106810509
0.171773156377984
0.172537371278858
0.173312166248613
0.174100060592861
0.174903680720117
0.175725762745577
0.17656915515025
0.177436821478211
0.159564748872131
0.160490327513171
0.161449788227324
0.162446581856265
0.163484287651796
0.164566615754043
0.165697409544682
0.166880647846199
0.16812044693692
0.169421062350385
0.140691026448237
0.14212660560263
0.143636617279789
0.145225886554658
0.146899382346798
0.14866221721066
0.15051964666512
0.152477068025228
0.154540018699047
0.156714173912612
0.163825631793607
0.166239757974016
0.168782909185324
0.171461276466494
0.174281167460409
0.177248999963334
0.180371294664447
0.183654667047136
0.187105818425938
0.190731526095404
0.214316426601197
0.218311827927323
0.222502461054728
0.226895290253031
0.231497292567882
0.236315442312161
0.241356694592971
0.246627967879362
0.252136125620523
0.257887956929033
0.257324055524023
0.263583201908209
0.270105736436818
0.276897939810892
0.283965908664336
0.291315531241099
0.298952462391074
0.306882097943883
0.315109548525732
0.323639612890326
0.367099267664237
0.376247572647638
0.385710744112613
0.395492059720337
0.405594347510001
0.416019958121432
0.426770737183395
0.437847997980101
0.449252494512615
0.460984395075284
0.495037849958498
0.50742259247545
0.520131475761616
0.533162075715576
0.54651126253253
0.560175180033113
0.574149226406361
0.588428036496459
0.60300546576151
0.617874576030128
0.665782137191462
0.681210560860658
0.696904976326972
0.712855168636805
0.7290500891078
0.745477854293437
0.762125747500308
0.778980222939013
0.796026912581107
0.813250635784939
0.886583289123621
0.904112352174602
0.921768170008803
0.93953246478926
0.957386237193602
0.975309793372136
0.993282774804073
1.01128419102042
1.02929245514917
1.04728542222472
1.08181017798716
1.09970409130344
1.11751334706964
1.13521400353904
1.15278179090902
1.17019216424641
1.18742035839871
1.20444144472969
1.22123038950664
1.23776211375578
1.25385760063405
1.2697997726655
1.28540983225423
1.30066314042499
1.31553532718934
1.33000235585776
1.34404058730447
1.35762684394635
1.37073847319568
1.38335341014476
1.40814024539062
1.41969826086191
1.43069752565358
1.44111892864384
1.45094423990756
1.46015616380531
1.46873838968147
1.47667563996367
1.48395371546504
1.49055953770143
1.49853301795069
1.50375977346879
1.5082821392648
1.51209187722791
1.51518203103728
1.51754694732764
1.51918229292368
1.52008506807009
1.5202536156004
1.51968762600548
1.53266800033344
1.53063739919672
1.52787940720005
1.52439907375375
1.52020275962116
1.5152981175457
1.50969406899373
1.50340077711187
1.4964296160137
1.48879313652551
1.47862425095694
1.46969930252648
1.46015335593251
1.4500032608263
1.4392668247004
1.42796276086818
1.41611063416821
1.40373080461366
1.39084436921344
1.37747310219722
1.31915808907843
1.30488488360769
1.29019561582515
1.27511414749697
1.25966470314458
1.24387180571918
1.22776021235581
1.21135485043971
1.19468075421239
1.17776300213897
1.13571256113091
1.11838260255205
1.1008838784019
1.08324104026916
1.06547848942941
1.04762032297502
1.02969028201235
1.01171170206881
0.993707465840669
0.975699958398899
0.940043797850743
0.922094704188798
0.904206099803408
0.886397983858091
0.868689673976804
0.851099777920937
0.833646168173223
0.816345959439436
0.799215489066348
0.782270300361801
0.733558746023302
0.717027508244306
0.700723293933766
0.684658360345331
0.668844129531727
0.653291188153408
0.638009289787986
0.623007359646765
0.608293501597975
0.5938750073897
0.554837539435415
0.541028458192805
0.527531866144537
0.514351938749433
0.501492114366706
0.488955114171876
0.476742963409133
0.464857013848924
0.453297967319803
0.44206590018413
0.406529709967851
0.395949455981838
0.385692913898509
0.37575791737735
0.366141806709353
0.356841456330391
0.34785330243237
0.339173370566228
0.330797303135861
0.32272038668703
0.294198783989765
0.286704740295082
0.279493840022274
0.272560212022586
0.265897759687263
0.259500185304154
0.253361013696274
0.24747361509257
0.241831227187167
0.236426976349059
0.224276069786308
0.219327127620207
0.214595232392876
0.210073259266073
0.205754064445066
0.201630500803693
0.197695432545635
0.193941748904986
0.190362376893504
0.186950293105757
0.18691279988578
0.183814474142005
0.180862768161076
0.178050956673006
0.17537240952382
0.172820598253584
0.170389101900069
0.168071612061518
0.165861937253658
0.163754006597414
0.182442511703121
0.180520353820653
0.178682478717361
0.176923322759836
0.175237452662098
0.173619565971081
0.17206449115739
0.170567187350856
0.169122743759904
0.167726378813129
0.180882568287674
0.179568527099336
0.178288983194435
0.177039659038782
0.175816399141323
0.174615168282574
0.173432049705174
0.172263243295425
0.171105063783018
0.169953938984525
0.20578100352848
0.204633715599882
0.203483427934824
0.202327004802889
0.201161416204284
0.199983736812015
0.198791145085754
0.197580922568047
0.196350453371589
0.195097223864367
0.220139127184628
0.21885863264518
0.217550462844683
0.216212422663756
0.214842419959206
0.21343846629109
0.211998677847747
0.210521276562451
0.209004591413638
0.207447059899047
0.23290293470278
0.231259465360601
0.22957113036402
0.22783681908111
0.226055538931968
0.224226417618744
0.222348705421298
0.220421777538209
0.218445136451904
0.216418414295896
0.256542663538024
0.254415205936313
0.252237364793769
0.25000931375435
0.247731367165878
0.245403981965264
0.243027759398216
0.24060344654907
0.23813193765665
0.235614275192538
0.260539827805061
0.257933582348043
0.255285206869166
0.25259634200878
0.249868777686062
0.247104452295683
0.244305451524441
0.241474006772433
0.238612493164818
0.235723427142041
0.262471028279484
0.259534957359652
0.256579700611409
0.253608306883756
0.250623947672895
0.247629912034015
0.244629601041346
0.241626521800882
0.23862428102248
0.235626578160404
0.226370146289516
0.22339295179581
0.220431875234783
0.217490910259251
0.214574102974584
0.211685542808985
0.208829353079362
0.20600968127951
0.203230689119164
0.200496542344344
0.169031268149885
0.166399273544405
0.163824541385917
0.161311148546544
0.158863122926828
0.156484432684408
0.154178975494765
0.15195056788335
0.149802934668728
0.147739698556538
0.151835279180203
0.149951246090367
0.148161764575698
0.146469949228451
0.144878764135896
0.143391014196492
0.142009336852147
0.140736194270224
0.139573866007285
0.138524442184834
0.0897230101530662
0.0889048769820927
0.0882047220212254
0.0876238205921977
0.0871632330520101
0.0868238015550749
0.0866061474760982
0.0865106695045729
0.0865375424189106
0.0866867165453571
0.0768038694329756
0.077196600569615
0.0777101420711653
0.0783435547563076
0.0790956825332751
0.07996515591201
0.0809503961557834
0.0820496200546011
0.0832608453001543
0.0845818964395825
0.0567551730630892
0.0582886101175482
0.0599242555182081
0.0616592314253177
0.0634905043541198
0.0654148940030838
0.0674290824445243
0.0695296236404667
0.0717129532456025
0.0739753986583959
0.0491187752074641
0.0515280528729764
0.054004882403601
0.0565452622544813
0.0591451352069622
0.0618003990700935
0.0645069173515503
0.0672605298596103
0.0700570631987397
0.0728923411224517
0.0525342716651182
0.0554345492780498
0.0583611262900669
0.0613099145254171
0.0642768714027134
0.067258008746973
0.0702494012466572
0.0732471945327994
0.0762476128594078
0.0792469663665339
0.0605418858236838
0.0635284173544822
0.0665033958428878
0.0694635387282012
0.0724056788936774
0.0753267691585305
0.0782238862844114
0.0810942344953921
0.0839351485125717
0.086744096106461
0.0668104560983639
0.069548416260698
0.0722476300174938
0.0749061134320599
0.0775220213863238
0.0800936474082195
0.0826194230880743
0.0850979170999879
0.0875278338453112
0.0899080117363553
0.0977999005085144
0.100077641365195
0.102302940514318
0.104475148732713
0.106593737518099
0.108658295634797
0.110668525444108
0.1126242390411
0.114525354219483
0.116371890286108
0.115640827965133
0.117378648100061
0.119062512455959
0.12069280226607
0.122269977824045
0.123794573827791
0.12526719471175
0.126688509984885
0.128059249590793
0.129380199305553
0.140625292626702
0.141849220534881
0.143026005721586
0.144156612520781
0.145242039135886
0.146283313539845
0.147281489495963
0.148237642707524
0.149152867103263
0.150028271264813
0.177329490174372
0.178128621248769
0.178891312258747
0.179618697675608
0.180311911042405
0.180972082332602
0.181600335469552
0.182197786006444
0.182765538965713
0.183304686836317
0.195204244582257
0.195689400526339
0.196149135939326
0.196584476219804
0.196996426494108
0.197385970498637
0.197754069595507
0.198101661916632
0.198429661631138
0.19873895833079
0.257370969809071
0.257645428541948
0.257903701080678
0.258146574729653
0.25837481071957
0.258589144183833
0.258790284213616
0.258978913985976
0.25915569095952
0.259321247132213
0.283267999226343
0.283412909573759
0.283548345750709
0.283674841551711
0.283792907352103
0.283903030633093
0.284005676535325
0.284101288436879
0.284190288551845
0.284273078545807
0.324936394629347
0.325007890338857
0.325074263970321
0.325135841371609
0.325192931059382
0.325245824870674
0.325294798611507
0.325340112700492
0.325382012805545
0.325420730472052
0.334352142460634
0.334385136475127
0.334415564074695
0.334443606375568
0.334469433336615
0.334493204309939
0.334515068575556
0.334535165859623
0.334553626835828
0.334570573609629
0.325329837854701
0.325344090584208
0.325357148600001
0.325369104228947
0.325380043389638
0.325390045972372
0.325399186202206
0.325407532985325
0.325415150239065
0.325422097205936
0.364950883801628
0.364956650699839
0.364961899898304
0.36496667477456
0.364971015375865
0.364974958646161
0.364978538640191
0.364981786725248
0.364984731771068
0.364987400328347
0.351216258472154
0.351218445256185
0.351220422914672
0.351222210297325
0.351223824674096
0.351225281855692
0.35122659630604
0.351227781247123
0.351228848756622
0.35122980985876
0.351884901147384
0.351885678709771
0.351886377431256
0.351887004908043
0.351887568048264
0.351888073129711
0.351888525853193
0.351888931391795
0.351889294436324
0.351889619237189
0.320341185321043
0.320341444813939
0.320341676542422
0.320341883351146
0.320342067808433
0.320342232231456
0.320342378709308
0.320342509124107
0.320342625170299
0.320342728372291
0.277107184191332
0.277107265677023
0.277107338025445
0.277107402228163
0.277107459174098
0.27710750965959
0.277107554397546
0.277107594025731
0.277107629114295
0.277107660172585
0.247923360089197
0.24792338440203
0.247923405906613
0.247923424925139
0.247923441744446
0.247923456619733
0.247923469777884
0.247923481420482
0.247923491726504
0.247923500854752
0.232101464345334
0.232101471524411
0.232101477901767
0.23210148357517
0.232101488631081
0.232101493145912
0.232101497187153
0.232101500814374
0.232101504080124
0.23210150703073
0.209306588728259
0.209306591166151
0.209306593397288
0.209306595449492
0.209306597347225
0.209306599111977
0.209306600762629
0.209306602315752
0.209306603785892
0.209306605185811
0.177642687395216
0.177642688686889
0.177642689937953
0.177642691155952
0.177642692347503
0.177642693518407
0.177642694673755
0.177642695818015
0.177642696955112
0.177642698088494
0.163789559858592
0.163789560993295
0.163789562132359
0.163789563277872
0.163789564431689
0.163789565595457
0.163789566770645
0.163789567958569
0.163789569160412
0.163789570377242
0.158772345883337
0.158772347132964
0.158772348400244
0.158772349685925
0.158772350990704
0.158772352315233
0.158772353660125
0.15877235502596
0.158772356413293
0.158772357822657
0.157475291522929
0.157475292977878
0.157475294456355
0.157475295958839
0.157475297485798
0.157475299037698
0.157475300614999
0.157475302218162
0.157475303847645
0.157475305503905
0.191662730558038
0.191662732269238
0.191662734008603
0.191662735776602
0.191662737573708
0.191662739400399
0.191662741257156
0.191662743144467
0.191662745062827
0.191662747012734
0.198291014642359
0.198291016656888
0.198291018704504
0.198291020785734
0.198291022901113
0.198291025051183
0.198291027236494
0.198291029457603
0.198291031715076
0.198291034009488
0.223312784250931
0.223312786620976
0.223312789029734
0.223312791477813
0.223312793965832
0.223312796494416
0.223312799064204
0.22331280167584
0.22331280432998
0.22331280702729
0.25140307938012
0.251403082165805
0.251403084996716
0.251403087873559
0.251403090797049
0.251403093767915
0.251403096786894
0.251403099854735
0.251403102972198
0.251403106140054
0.304901853834076
0.304901857105079
0.304901860428859
0.304901863806234
0.304901867238035
0.304901870725103
0.304901874268293
0.304901877868475
0.304901881526527
0.304901885243343
0.317372073334648
0.317372077171727
0.31737208107033
0.317372085031405
0.317372089055914
0.317372093144831
0.317372097299146
0.317372101519863
0.317372105808002
0.317372110164596
0.337953804496069
0.337953808992735
0.33795381356105
0.337953818202109
0.337953822917024
0.337953827706923
0.337953832572949
0.337953837516264
0.337953842538046
0.33795384763949
0.355622381915327
0.355622387179749
0.355622392527523
0.355622397959915
0.355622403478209
0.355622409083708
0.355622414777734
0.355622420561627
0.355622426436747
0.355622432404475
0.356531528844764
0.356531535001926
0.356531541255955
0.356531547608312
0.356531554060479
0.35653156061396
0.356531567270279
0.356531574030983
0.356531580897642
0.356531587871845
0.357414862073468
0.357414869267628
0.357414876574246
0.357414883995005
0.357414891531615
0.357414899185807
0.35741490695934
0.357414914853995
0.357414922871581
0.357414931013931
0.341748423937434
0.341748432334917
0.341748440862822
0.341748449523088
0.341748458317683
0.341748467248602
0.341748476317868
0.341748485527532
0.341748494879677
0.34174850437641
0.318918777627161
0.318918787419523
0.318918797362984
0.318918807459777
0.318918817712163
0.318918828122436
0.318918838692925
0.318918849425987
0.318918860324015
0.318918871389435
0.29504852399832
0.295048535405937
0.295048546988427
0.295048558748355
0.295048570688321
0.295048582810961
0.295048595118947
0.295048607614989
0.295048620301835
0.295048633182269
0.275478938214183
0.275478951490306
0.275478964968609
0.275478978652035
0.275478992543566
0.275479006646228
0.275479020963088
0.275479035497255
0.27547905025188
0.275479065230158
0.218162159129879
0.218162174565226
0.218162190234079
0.218162206139812
0.218162222285844
0.218162238675645
0.218162255312728
0.218162272200658
0.218162289343045
0.218162306743551
0.210004305535315
0.210004323463243
0.210004341660574
0.210004360131175
0.210004378878963
0.210004397907907
0.210004417222033
0.210004436825419
0.2100044567222
0.210004476916567
0.173995466494568
0.173995487296903
0.173995508409738
0.173995529837493
0.17399555158465
0.17399557365575
0.173995596055396
0.173995618788252
0.173995641859047
0.173995665272569
0.137836436438341
0.137836460551951
0.13783648502305
0.137836509856693
0.137836535057998
0.137836560632154
0.137836586584421
0.137836612920125
0.137836639644666
0.137836666763516
0.166841831006042
0.166841858930214
0.166841887265548
0.166841916017812
0.166841945192851
0.166841974796586
0.166842004835017
0.166842035314224
0.166842066240367
0.166842097619687
0.182068415715327
0.182068448020055
0.182068480797182
0.182068514053285
0.182068547795027
0.182068582029159
0.18206861676252
0.182068652002039
0.182068687754737
0.182068724027725
0.198734724845564
0.198734762180841
0.198734800058307
0.198734838485452
0.198734877469864
0.198734917019232
0.198734957141342
0.198734997844084
0.198735039135447
0.198735081023528
0.220233262285763
0.220233305391984
0.220233349119841
0.220233393477857
0.220233438474665
0.220233484119008
0.220233530419743
0.220233577385842
0.220233625026391
0.220233673350593
0.243422777948847
0.24342282766844
0.243422878100013
0.24342292925325
0.24342298113796
0.243423033764079
0.243423087141669
0.243423141280919
0.24342319619215
0.243423251885815
0.258609741727402
0.258609799017824
0.258609857122841
0.258609916053447
0.258609975820776
0.258610036436104
0.258610097910849
0.258610160256572
0.258610223484984
0.25861028760794
0.313119686499293
0.31311975244751
0.313119819326749
0.313119887149475
0.313119955928312
0.313120025676041
0.313120096405605
0.313120168130109
0.313120240862823
0.31312031461718
0.319598344606678
0.319598420445305
0.319598497346899
0.319598575325579
0.319598654395642
0.319598734571561
0.31959881586799
0.319598898299765
0.319598981881906
0.31959906662962
0.350561731523242
0.350561818648479
0.350561906986049
0.350561996551927
0.350562087362284
0.35056217943349
0.350562272782119
0.350562367424948
0.350562463378959
0.350562560661346
0.367926585496476
0.367926685488037
0.367926786860827
0.367926889632898
0.367926993822522
0.367927099448194
0.367927206528637
0.367927315082801
0.367927425129868
0.367927536689251
0.362491464767802
0.362491579411013
0.362491695626214
0.362491813433782
0.362491932854339
0.362492053908759
0.362492176618167
0.362492301003944
0.362492427087728
0.362492554891421
0.364266641140961
0.364266772451229
0.364266905548701
0.36426704045635
0.364267177197427
0.36426731579546
0.364267456274259
0.364267598657921
0.364267742970828
0.364267889237656
0.343599395833834
0.343599546083711
0.343599698363316
0.343599852698521
0.343600009115506
0.343600167640764
0.3436003283011
0.34360049112364
0.343600656135827
0.343600823365433
0.354417647232866
0.354417818981935
0.354417993033716
0.354418169417315
0.354418348162179
0.354418529298101
0.354418712855227
0.354418898864053
0.354419087355436
0.354419278360594
0.295203615288932
0.295203811416755
0.295204010154213
0.295204211534007
0.295204415589222
0.295204622353328
0.295204831860182
0.295205044144038
0.295205259239545
0.295205477181755
0.273865951806452
0.273866175548855
0.273866402245572
0.273866631933306
0.273866864649183
0.273867100430759
0.27386733931602
0.273867581343391
0.273867826551738
0.273868074980374
0.239507240074793
0.239507495063751
0.23950775339366
0.239508015105664
0.239508280241378
0.239508548842892
0.239508820952777
0.239509096614086
0.239509375870364
0.239509658765651
0.212884632073317
0.212884922380745
0.212885216462321
0.212885514364117
0.212885816132723
0.212886121815259
0.212886431459373
0.212886745113252
0.212887062825627
0.212887384645775
0.19193454906944
0.191934879255187
0.191935213699884
0.191935552455059
0.191935895572814
0.191936243105835
0.191936595107396
0.191936951631365
0.191937312732209
0.191937678465004
0.18347432504953
0.183474700213905
0.183475080179153
0.183475465002835
0.183475854743149
0.183476249458937
0.183476649209691
0.183477054055559
0.183477464057354
0.183477879276556
0.185703384697984
0.185703810539156
0.185704241786263
0.185704678503533
0.185705120755896
0.185705568608991
0.185706022129178
0.185706481383538
0.185706946439886
0.185707417366773
0.161694317244554
0.16169480012117
0.161695289078489
0.161695784188089
0.161696285522328
0.161696793154344
0.161697307158065
0.161697827608219
0.16169835458034
0.161698888150774
0.198590191532111
0.198590738531507
0.19859129236322
0.198591853106929
0.198592420843171
0.198592995653341
0.198593577619706
0.198594166825412
0.19859476335449
0.198595367291868
0.221716981810645
0.221717600823026
0.221718227503945
0.221718861941995
0.221719504226708
0.221720154448565
0.221720812699002
0.221721479070418
0.221722153656191
0.221722836550678
0.241131524209898
0.241132224008873
0.241132932405634
0.241133649498567
0.241134375387088
0.241135110171654
0.24113585395377
0.241136606836002
0.241137368921984
0.24113814031643
0.257574878549415
0.257575668879294
0.257576468838351
0.257577278535716
0.257578098081648
0.257578927587547
0.257579767165964
0.257580616930608
0.257581476996362
0.257582347479292
0.329707326774494
0.329708218444749
0.329709120887574
0.329710034223871
0.329710958575778
0.329711894066681
0.329712840821226
0.32971379896533
0.329714768626189
0.329715749932295
0.332199393403635
0.332200398390942
0.332201415416847
0.332202444615133
0.332203486120932
0.332204540070742
0.332205606602439
0.332206685855285
0.332207777969943
0.332208883088491
0.368712262695264
0.368713394253534
0.368714539250526
0.368715697834095
0.368716870153571
0.368718056359775
0.368719256605027
0.368720471043166
0.368721699829557
0.368722943121106
0.374075915106088
0.374077187884911
0.374078475648998
0.374079778561559
0.374081096787411
0.374082430492995
0.37408377984639
0.374085145017325
0.374086526177194
0.374087923499073
0.388317013220681
0.38831844339259
0.388319890255952
0.388321353990703
0.388322834778532
0.388324332802894
0.388325848249026
0.388327381303963
0.38832893215655
0.38833050099746
0.372535184975982
0.372536790372941
0.372538414341358
0.372540057079368
0.372541718787009
0.372543399666243
0.372545099920966
0.372546819757026
0.372548559382241
0.372550319006412
0.361054357373554
0.361056157633063
0.361057978533005
0.361059820291285
0.361061683127875
0.36106356726483
0.361065472926308
0.361067400338585
0.361069349730071
0.36107132133133
0.343668204548
0.343670221269191
0.343672260904935
0.343674323694581
0.343676409879718
0.343678519704193
0.343680653414133
0.343682811257955
0.343684993486393
0.343687200352509
0.316692609645202
0.316694866555284
0.316697148876409
0.316699456871151
0.316701790804511
0.316704150943931
0.316706537559317
0.31670895092306
0.316711391310047
0.316713858997691
0.28885131283878
0.288853835970154
0.28885638724974
0.288858966965233
0.288861575406943
0.288864212867824
0.288866879643489
0.288869576032233
0.28887230233505
0.28887505885566
0.243847355224573
0.243850173102911
0.243853022126734
0.243855902610856
0.243858814872919
0.243861759233411
0.243864736015691
0.243867745546009
0.243870788153526
0.243873864170341
0.229508166295466
0.229511310139012
0.229514488405971
0.229517701440399
0.229520949589394
0.229524233203124
0.229527552634846
0.22953090824093
0.229534300380881
0.229537729417363
0.19990333129541
0.199906835225695
0.199910377159686
0.19991395747291
0.199917576544174
0.199921234755578
0.199924932492549
0.199928670143858
0.199932448101645
0.199936266761447
0.17172436659456
0.171728267858694
0.171732211032057
0.171736196524003
0.171740224747404
0.171744296118674
0.171748411057791
0.171752569988326
0.171756773337465
0.171761021536037
0.183348940749157
0.183353279953771
0.183357665322405
0.183362097300708
0.1833665763381
0.183371102887794
0.183375677406827
0.183380300356082
0.183384972200317
0.183389693408191
0.198042760642834
0.198047581999694
0.198052454149837
0.198057377577788
0.19806235277211
0.198067380225424
0.198072460434443
0.198077593899992
0.198082781127042
0.198088022624735
0.210499089265739
0.210504440848963
0.210509848255555
0.210515312011618
0.210520832647566
0.210526410698149
0.210532046702485
0.210537741204089
0.210543494750897
0.210549307895299
0.230580766483631
0.230586700498344
0.230592695794822
0.230598752943554
0.230604872519625
0.230611055102747
0.230617301277288
0.230623611632301
0.230629986761554
0.230636427263561
0.260106445060879
0.26011301812306
0.2601196583823
0.260126366456391
0.260133142968019
0.260139988544795
0.260146903819285
0.260153889429041
0.260160946016633
0.260168074229678
0.286429671824191
0.286429673953239
0.286429676111695
0.286429678299947
0.286429680518393
0.286429682767434
0.286429685047474
0.286429687358925
0.286429689702203
0.286429692077729
0.329187398906817
0.329187401348126
0.32918740382298
0.329187406331823
0.329187408875102
0.329187411453272
0.329187414066794
0.329187416716132
0.32918741940176
0.329187422124155
0.357759011150522
0.357759013947907
0.357759016783528
0.357759019657888
0.357759022571494
0.357759025524861
0.357759028518512
0.357759031552973
0.35775903462878
0.357759037746472
0.361255983749733
0.361255986952849
0.361255990199515
0.361255993490301
0.361255996825782
0.361256000206542
0.361256003633169
0.361256007106263
0.361256010626427
0.361256014194275
0.374296821657567
0.37429682532265
0.3742968290373
0.37429683280216
0.374296836617883
0.374296840485127
0.374296844404561
0.37429684837686
0.374296852402708
0.3742968564828
0.382109777792335
0.382109781983025
0.382109786230087
0.382109790534249
0.382109794896248
0.38210979931683
0.38210980379675
0.382109808336771
0.382109812937667
0.382109817600222
0.37746537201296
0.377465376801218
0.377465381653542
0.377465386570753
0.377465391553683
0.377465396603175
0.377465401720082
0.377465406905266
0.377465412159601
0.377465417483972
0.353387213398599
0.353387218865737
0.353387224405627
0.353387230019199
0.353387235707392
0.353387241471157
0.353387247311455
0.353387253229262
0.353387259225562
0.353387265301354
0.344518753665279
0.344518759903096
0.344518766223471
0.344518772627451
0.344518779116096
0.344518785690478
0.344518792351683
0.344518799100808
0.344518805938966
0.344518812867281
0.321576888290824
0.321576895402884
0.321576902608558
0.321576909909027
0.321576917305484
0.321576924799139
0.321576932391215
0.321576940082949
0.321576947875594
0.321576955770417
0.28938547162642
0.289385479729463
0.289385487938578
0.289385496255096
0.289385504680359
0.289385513215731
0.289385521862587
0.289385530622321
0.289385539496345
0.289385548486083
0.273202801557863
0.273202810783382
0.273202820128999
0.27320282959621
0.27320283918653
0.273202848901489
0.273202858742637
0.273202868711542
0.27320287880979
0.273202889038987
0.230090982212408
0.230090992708393
0.230091003340255
0.230091014109678
0.230091025018363
0.230091036068031
0.230091047260426
0.230091058597309
0.230091070080463
0.230091081711693
0.208213444873812
0.208213456806691
0.208213468893185
0.208213481135186
0.208213493534604
0.208213506093375
0.208213518813454
0.208213531696823
0.208213544745484
0.208213557961463
0.196577184115489
0.196577197672277
0.196577211402604
0.196577225308593
0.196577239392388
0.196577253656164
0.196577268102115
0.196577282732463
0.196577297549458
0.196577312555372
0.18170866778655
0.18170868317723
0.181708698763809
0.181708714548668
0.181708730534216
0.181708746722887
0.181708763117146
0.181708779719484
0.181708796532423
0.181708813558511
0.199899624079226
0.19989964153938
0.19989965922051
0.199899677125283
0.1998996952564
0.199899713616589
0.199899732208613
0.199899751035263
0.199899770099363
0.199899789403772
0.223345863832024
0.223345883625748
0.223345903668547
0.223345923963408
0.223345944513355
0.223345965321445
0.223345986390771
0.223346007724458
0.223346029325669
0.223346051197602
0.240844780897325
0.240844803320442
0.240844826024094
0.240844849011627
0.240844872286422
0.240844895851901
0.240844919711524
0.240844943868788
0.240844968327232
0.240844993090433
0.272382291628911
0.27238231701252
0.272382342711861
0.272382368730675
0.272382395072745
0.272382421741895
0.272382448741994
0.272382476076952
0.272382503750724
0.272382531767308
0.290917436949108
0.290917465663493
0.290917494732956
0.290917524161677
0.290917553953882
0.290917584113846
0.290917614645887
0.290917645554375
0.290917676843728
0.29091770851841
0.309248540707338
0.309248573166276
0.309248606024241
0.3092486392859
0.309248672955969
0.309248707039221
0.309248741540477
0.309248776464614
0.309248811816562
0.309248847601303
0.331656616728866
0.331656653394366
0.331656690507943
0.331656728074802
0.331656766100207
0.331656804589478
0.331656843547995
0.331656882981195
0.331656922894576
0.331656963293695
0.376651503526726
0.376651544914235
0.37665158680452
0.376651629203383
0.376651672116692
0.376651715550377
0.376651759510431
0.376651804002915
0.376651849033954
0.376651894609739
0.392706982277363
0.392707028961484
0.392707076209332
0.392707124027369
0.39270717242213
0.392707221400218
0.392707270968308
0.392707321133148
0.392707371901556
0.392707423280425
0.387237483918148
0.387237536538916
0.387237589791271
0.387237643682408
0.387237698219595
0.387237753410182
0.387237809261595
0.387237865781341
0.387237922977006
0.387237980856258
0.388846045363914
0.388846104633667
0.388846164610502
0.388846225302418
0.388846286717499
0.388846348863914
0.388846411749922
0.388846475383864
0.388846539774175
0.388846604929377
0.362973859977305
0.362973926688213
0.362973994190121
0.362974062491917
0.362974131602582
0.362974201531192
0.362974272286919
0.362974343879031
0.362974416316893
0.36297448960997
0.34549888836831
0.345498963400606
0.345499039317108
0.345499116127683
0.345499193842301
0.345499272471037
0.345499352024071
0.345499432511689
0.345499513944283
0.345499596332356
0.336801284997319
0.336801369328292
0.336801454646909
0.336801540964115
0.33680162829097
0.336801716638646
0.336801806018433
0.336801896441737
0.336801987920084
0.336802080465116
0.300215736352222
0.300215831066038
0.300215926882196
0.300216023812829
0.300216121870192
0.300216221066668
0.300216321414767
0.300216422927127
0.300216525616517
0.300216629495836
0.251782976186984
0.251783082485388
0.251783190013215
0.251783298783902
0.251783408811021
0.251783520108283
0.25178363268954
0.251783746568782
0.251783861760145
0.251783978277907
0.236975177521989
0.236975296735966
0.236975417320053
0.236975539289117
0.236975662658176
0.236975787442399
0.23697591365711
0.236976041317786
0.236976170440062
0.23697630103973
0.190799437885059
0.190799571487524
0.190799706615719
0.19079984328608
0.19079998151521
0.19080012131988
0.190800262717026
0.190800405723756
0.19080055035735
0.190800696635259
0.201421798288772
0.201421947908365
0.201422099225682
0.201422252258881
0.201422407026304
0.201422563546472
0.201422721838094
0.201422881920061
0.201423043811456
0.201423207531547
0.197781348768824
0.197781516204885
0.197781685528605
0.197781856760031
0.197782029919403
0.197782205027166
0.197782382103963
0.197782561170641
0.197782742248254
0.197782925358062
0.188390990044899
0.188391177283715
0.188391366619767
0.188391558075163
0.188391751672227
0.188391947433501
0.188392145381748
0.188392345539953
0.188392547931327
0.188392752579305
0.196306214362062
0.196306423594473
0.196306635155176
0.196306849068532
0.19630706535914
0.196307284051838
0.196307505171703
0.196307728744058
0.196307954794467
0.196308183348745
0.247011048132165
0.24701128177262
0.247011517995889
0.247011756828796
0.247011998298424
0.247012242432117
0.247012489257478
0.247012738802381
0.247012991094963
0.247013246163632
0.278762907363897
0.278763168071055
0.278763431641167
0.278763698103743
0.278763967488576
0.278764239825741
0.278764515145602
0.27876479347881
0.27876507485631
0.278765359309337
0.293201489200427
0.293201779899412
0.293202073769426
0.293202370842909
0.293202671152606
0.293202974731572
0.293203281613174
0.293203591831095
0.293203905419333
0.293204222412209
0.320271686077539
0.320272009983942
0.320272337399888
0.320272668361006
0.320273002903256
0.320273341062938
0.320273682876688
0.320274028381488
0.320274377614662
0.320274730613885
0.340647341421996
0.340647702067746
0.340648066594687
0.340648435041913
0.340648807448886
0.340649183855431
0.340649564301743
0.340649948828389
0.340650337476312
0.340650730286834
0.380932281733365
0.380932682994578
0.380933088544656
0.380933498426466
0.38093391268327
0.380934331358727
0.380934754496898
0.380935182142247
0.380935614339646
0.38093605113438
0.386808349683493
0.386808795810404
0.386809246672999
0.386809702318239
0.386810162793513
0.386810628146643
0.386811098425884
0.386811573679931
0.386812053957922
0.386812539309439
0.381305587846528
0.381306083495648
0.381306584369755
0.38130709052025
0.381307601999002
0.381308118858344
0.381308641151084
0.381309168930503
0.381309702250362
0.381310241164906
0.386179327061561
0.38617987733016
0.386180433359114
0.38618099520464
0.386181562923457
0.386182136572789
0.386182716210373
0.386183301894461
0.386183893683823
0.386184491637751
0.38375355362036
0.383754164083414
0.383754780892095
0.38375540410783
0.383756033792589
0.383756670008893
0.383757312819814
0.38375796228898
0.383758618480582
0.383759281459376
0.352263012873866
0.352263689623599
0.352264373358232
0.352265064144827
0.352265762051038
0.352266467145108
0.352267179495879
0.352267899172795
0.352268626245906
0.352269360785873
0.329305394900829
0.329306144588961
0.32930690195965
0.329307667086048
0.329308440041944
0.329309220901768
0.329310009740593
0.329310806634143
0.329311611658797
0.329312424891594
0.288020755877065
0.288021585759925
0.288022424086051
0.288023270935172
0.2880241263877
0.288024990524739
0.288025863428089
0.288026745180249
0.288027635864426
0.288028535564538
0.261105190922157
0.261106108908762
0.261107036167377
0.261107972784819
0.261108918848644
0.26110987444715
0.261110839669388
0.261111814605162
0.261112799345037
0.261113793980343
0.246826381940461
0.24682739664372
0.246828421521061
0.246829456666938
0.246830502176599
0.246831558146096
0.246832624672283
0.246833701852832
0.246834789786231
0.246835888571792
0.214956747683711
0.214957868474865
0.214959000421128
0.214960143625174
0.21496129819053
0.214962464221584
0.214963641823592
0.214964831102686
0.214966032165875
0.214967245121057
0.20818615875169
0.208187395818125
0.208188645105626
0.208189906725701
0.208191180790775
0.208192467414199
0.208193766710258
0.208195078794172
0.20819640378211
0.208197741791189
0.203833783533441
0.203835147940004
0.203836525724846
0.203837917008961
0.203839321914332
0.203840740563932
0.203842173081736
0.203843619592724
0.203845080222893
0.203846555099258
0.202923348755076
0.202924852509006
0.202926370896381
0.202927904048375
0.202929452097218
0.202931015176206
0.202932593419705
0.202934186963162
0.202935795943111
0.202937420497178
0.22486240836498
0.224864064484583
0.224865736597828
0.224867424846798
0.224869129374704
0.2248708503259
0.224872587845885
0.224874342081318
0.224876113180017
0.224877901290975
0.24298925134502
0.242991073932193
0.242992913985706
0.242994771659316
0.24299664710799
0.242998540487916
0.24300045195651
0.243002381672423
0.24300432979555
0.24300629648704
0.256840592809015
0.256842597125726
0.256844620501842
0.256846663103607
0.256848725098555
0.256850806655528
0.256852907944676
0.256855029137472
0.256857170406716
0.256859331926549
0.308923347648241
0.308925550197061
0.308927773527001
0.308930017817637
0.308932283249932
0.308934570006236
0.308936878270299
0.308939208227284
0.308941560063768
0.308943933967756
0.322803498688518
0.32280591729729
0.32280835854624
0.322810822629176
0.32281330974138
0.322815820079614
0.322818353842137
0.322820911228707
0.322823492440593
0.322826097680589
0.336862725151471
0.336865379062189
0.336868057618614
0.336870761029716
0.336873489506039
0.336876243259704
0.336879022504421
0.336881827455501
0.336884658329863
0.336887515346046
0.385820138107428
0.385823048069395
0.385825984838615
0.385828948640204
0.385831939700949
0.385834958249316
0.385838004515462
0.385841078731245
0.385844181130234
0.38584731194772
0.385819302769486
0.385822491136779
0.385825708638877
0.385828955518064
0.385832232018396
0.385835538385717
0.385838874867665
0.385842241713687
0.385845639175045
0.385849067504832
0.414182555276613
0.414186046109901
0.414189568581973
0.414193122953346
0.414196709486418
0.414200328445483
0.414203980096741
0.414207664708309
0.414211382550232
0.414215133894495
0.37915625624379
0.379160075416504
0.379163928919265
0.379167817031931
0.379171740036356
0.379175698216403
0.379179691857955
0.379183721248929
0.37918778667928
0.379191888441024
0.360309828138806
0.360314003447654
0.360318215976384
0.360322466025347
0.36032675389701
0.360331079895968
0.360335444328951
0.360339847504843
0.360344289734688
0.360348771331707
0.349963251411274
0.34996781269106
0.349972414290851
0.34997705653269
0.349981739740853
0.349986464241869
0.349991230364525
0.349996038439883
0.350000888801291
0.350005781784395
0.323422699704508
0.323427678947203
0.323432701832453
0.323437768705227
0.323442879912853
0.323448035805039
0.323453236733875
0.323458483053857
0.323463775121892
0.323469113297313
0.299525881718859
0.299531313196828
0.299536791874875
0.299542318122172
0.299547892310381
0.299553514813672
0.299559186008729
0.299564906274773
0.299570675993565
0.299576495549428
0.276623176665038
0.276629097058308
0.276635068457097
0.276641091256096
0.276647165852619
0.27665329264662
0.276659472040707
0.276665704440153
0.276671990252911
0.276678329889628
0.250112772368038
0.25011922089546
0.250125724495085
0.250132283588471
0.250138898599943
0.2501455699566
0.250152298088332
0.250159083427834
0.250165926410622
0.250172827475039
0.209335601280067
0.209342619834187
0.209349697802114
0.209356835633667
0.209364033781566
0.209371292701452
0.209378612851895
0.209385994694412
0.20939343869348
0.209400945316553
0.202985654311513
0.202993287596921
0.203000984926683
0.203008746780293
0.203016573640294
0.203024465992289
0.203032424324959
0.203040449130072
0.203048540902506
0.203056700140253
0.192426369513443
0.192434665188357
0.192443029841435
0.192451463983297
0.192459968127758
0.192468542791839
0.192477188495785
0.192485905763076
0.192494695120449
0.192503557097903
0.214533871376448
0.214542880197213
0.214551963247817
0.214561121071479
0.214570354214759
0.214579663227575
0.214589048663217
0.214598511078362
0.214608051033086
0.214617669090885
0.231046321470946
0.231056097439121
0.231065953221508
0.231075889395419
0.231085906541659
0.231096005244541
0.2311061860919
0.231116449675109
0.231126796589094
0.23113722743235
0.246329244008789
0.246339844520415
0.246350530778354
0.246361303395524
0.24637216298849
0.246383110177473
0.24639414558637
0.246405269842769
0.246416483577962
0.246427787426963
0.25430366389046
0.254315149887075
0.254326727925014
0.254338398654325
0.254350162728856
0.254362020806263
0.254373973548032
0.254386021619494
0.254398165689836
0.254410406432118
0.298771056727486
0.298783492848406
0.298796027683846
0.298808661922517
0.298821396257077
0.298834231384153
0.298847168004352
0.298860206822275
0.298873348546538
0.298886593889782
0.341419854852015
0.341433309587329
0.341446870103863
0.341460537130518
0.3414743114003
0.341488193650332
0.341502184621872
0.341516285060327
0.341530495715267
0.341544817340444
0.360869741638302
0.360884287481995
0.360898946582403
0.360913719710147
0.360928607640101
0.360943611151412
0.36095873102751
0.360973968056128
0.360989323029312
0.36100479674344
0.381448180706037
0.381463894308587
0.381479729067349
0.381495685796175
0.38151176531332
0.381527968441462
0.381544296007713
0.381560748843634
0.381577327785253
0.381594033673077
0.397952713865499
0.397969676185246
0.397986767999746
0.398003990167571
0.398021343551848
0.398038829020273
0.398056447445121
0.398074199703268
0.398092086676199
0.398110109250026
0.414672207621008
0.414690504073537
0.414708938813197
0.414727512744747
0.414746226777644
0.414765081826058
0.414784078808883
0.414803218649754
0.414822502277062
0.414841930623964
0.399513555372905
0.399533275977612
0.399553144130138
0.399573160782851
0.399593326892962
0.39961364342253
0.39963411133848
0.399654731612617
0.399675505221637
0.399696433147143
0.36841500043862
0.368436239961596
0.368457636775435
0.368479191881497
0.368500906286116
0.36852278100061
0.368544817041297
0.368567015429507
0.368589377191594
0.368611903358949
0.343442792240962
0.343465650333248
0.343488675955335
0.343511870158894
0.343535234000696
0.343558768542627
0.343582474851701
0.343606354000066
0.343630407065023
0.343654635129038
0.331070647216776
0.331095228547006
0.331119988154781
0.331144927143336
0.331170046621128
0.331195347701848
0.331220831504435
0.331246499153081
0.33127235177725
0.331298390511684
0.312893998689055
0.312920413069423
0.312947016996076
0.312973811624985
0.313000798117461
0.313027977640157
0.313055351365084
0.31308292046962
0.31311068613652
0.313138649553927
0.27764304881164
0.277671411316093
0.277699975167911
0.27772874157689
0.277757711758265
0.277786886932716
0.277816268326382
0.277845857170869
0.277875654703259
0.27790566216612
0.245661872377408
0.245692303450898
0.245722948215564
0.245753807936005
0.24578488388235
0.245816177330268
0.245847689560972
0.245879421861235
0.245911375523388
0.245943551845336
0.213455122555503
0.213487748113084
0.213520600257683
0.213553680309569
0.21358698959462
0.213620529444332
0.213654301195824
0.213688306191847
0.213722545780788
0.213757021316681
0.215477080473964
0.21551203198847
0.215547223545958
0.215582656523103
0.215618332302256
0.215654252271451
0.215690417824406
0.215726830360534
0.215763491284947
0.215800402008457
0.198583701359342
0.19862111593633
0.198658784579129
0.198696708721415
0.198734889802592
0.198773329267793
0.198812028567889
0.198850989159488
0.198890212504943
0.198929700072352
0.200471016581008
0.200511037019622
0.200551326118997
0.200591885370249
0.200632716270256
0.200673820321661
0.200715199032872
0.200756853918068
0.200798786497195
0.200840998295975
0.22378381658974
0.223826591428085
0.223869650097895
0.223912994147994
0.223956625132985
0.224000544613251
0.224044754154954
0.224089255330036
0.224134049716218
0.224179138897004
0.240417775828046
0.24046345937166
0.240509442495057
0.240555726804853
0.24060231391344
0.240649205438984
0.240696403005427
0.240743908242478
0.24079172278562
0.240839848276099
0.272895107836925
0.272943860168881
0.272992928406497
0.273042314214063
0.273092019261622
0.273142045224967
0.273192393785637
0.27324306663091
0.273294065453804
0.27334539195307
0.31305930563233
0.313051427613984
0.313043650606741
0.313035973441207
0.31302839495973
0.313020914016307
0.313013529476492
0.313006240217305
0.312999045127136
0.312991943105657
0.323022584540674
0.323015665400249
0.323008836094294
0.323002095566692
0.322995442772151
0.32298887667612
0.322982396254695
0.322976000494535
0.322969688392772
0.322963458956924
0.344366415668644
0.344360348628291
0.344354361337856
0.344348452845537
0.344342622209486
0.344336868497729
0.344331190788077
0.344325588168044
0.344320059734765
0.344314604594911
0.373346154848791
0.373340843653539
0.373335603128128
0.373330432416558
0.373325330671962
0.373320297056519
0.373315330741381
0.37331043090659
0.373305596741
0.373300827442201
0.396689312928744
0.396684670990845
0.396680091564136
0.396675573880372
0.396671117179659
0.396666720710377
0.396662383729108
0.396658105500557
0.396653885297486
0.39664972240063
0.419523820991151
0.41951977058049
0.419515775365404
0.419511834657817
0.419507947777276
0.419504114050873
0.419500332813179
0.419496603406171
0.419492925179166
0.419489297488751
0.401982323747944
0.401978795229204
0.401975315359749
0.401971883524567
0.401968499115575
0.401965161531559
0.401961870178108
0.401958624467543
0.40195542381886
0.40195226765766
0.380436481462746
0.380433412579428
0.380430386499407
0.380427402674081
0.380424460561141
0.38042155962451
0.380418699334283
0.380415879166663
0.380413098603905
0.380410357134254
0.363521336233288
0.363518671438249
0.363516044236403
0.363513454139369
0.363510900664464
0.363508383334648
0.363505901678465
0.363503455229989
0.363501043528767
0.363498666119765
0.339072611304699
0.339070301136429
0.339068023927236
0.339065779243213
0.339063566655603
0.339061385740742
0.339059236080011
0.339057117259782
0.339055028871365
0.339052970510961
0.304708072024057
0.304706072527582
0.304704101876549
0.304702159686213
0.304700245576465
0.30469835917179
0.304696500101216
0.304694667998265
0.304692862500907
0.304691083251513
0.260104315001766
0.260102587192786
0.260100884584825
0.260099206837397
0.260097553614186
0.260095924583003
0.260094319415744
0.260092737788341
0.260091179380725
0.260089643876778
0.258022941687169
0.2580214510578
0.258019982407034
0.258018535434139
0.258017109842125
0.258015705337705
0.258014321631252
0.258012958436759
0.258011615471803
0.258010292457498
0.207577140812742
0.207575856877064
0.20757459207625
0.207573346145196
0.207572118822146
0.20757090984866
0.207569718969569
0.207568545932947
0.207567390490067
0.207566252395371
0.203734025996209
0.203732921873688
0.203731834381315
0.203730763285844
0.203729708357018
0.203728669367539
0.203727646093034
0.203726638312016
0.20372564580586
0.203724668358762
0.185702943648084
0.185701995682833
0.185701062145859
0.185700142832335
0.185699237540101
0.185698346069633
0.185697468224009
0.185696603808881
0.185695752632446
0.185694914505414
0.208024872722803
0.208024060136618
0.208023260046758
0.208022472273699
0.208021696640287
0.208020932971709
0.208020181095466
0.208019440841346
0.208018712041398
0.208017994529903
0.216626148215118
0.216625452792169
0.216624768173647
0.216624094202502
0.216623430723785
0.216622777584624
0.216622134634201
0.216621501723725
0.216620878706406
0.216620265437435
0.237918260168521
0.237917665969613
0.237917081096257
0.237916505411323
0.23791593877954
0.237915381067474
0.237914832143511
0.237914291877828
0.237913760142374
0.237913236810848
0.279161711062956
0.279161204167276
0.279160705306908
0.279160214362335
0.279159731215687
0.279159255750718
0.279158787852784
0.279158327408826
0.279157874307348
0.279157428438397
0.289597628529405
0.289597196801737
0.289596771985814
0.28959635397767
0.289595942674788
0.289595537976082
0.289595139781879
0.289594747993901
0.289594362515247
0.289593983250377
0.348846879369805
0.348846512251232
0.348846151067808
0.348845795729257
0.348845446146584
0.348845102232048
0.348844763899151
0.348844431062625
0.348844103638409
0.348843781543638
0.367206624646503
0.36720631296673
0.367206006374822
0.367205704792543
0.367205408142773
0.367205116349497
0.367204829337792
0.36720454703381
0.367204269364764
0.367203996258917
0.381229899557996
0.381229635367453
0.381229375531044
0.381229119981086
0.381228868650877
0.381228621474681
0.381228378387719
0.381228139326152
0.381227904227071
0.381227673028486
0.387910042498546
0.387909818918584
0.387909599058523
0.387909382859919
0.387909170265184
0.387908961217578
0.387908755661192
0.387908553540944
0.387908354802561
0.387908159392572
0.407871796503962
0.407871607593497
0.407871421855711
0.407871239240228
0.407871059697421
0.407870883178403
0.407870709635011
0.407870539019802
0.40787037128604
0.407870206387688
0.397288762253543
0.39728860289064
0.397288446229127
0.397288292225662
0.397288140837557
0.397287992022765
0.397287845739873
0.397287701948093
0.39728756060725
0.397287421677779
0.377826614955318
0.377826480732281
0.377826348805478
0.377826219137689
0.37782609169226
0.377825966433092
0.377825843324641
0.377825722331902
0.377825603420405
0.377825486556209
0.372348910363715
0.372348797494365
0.372348686573579
0.372348577569448
0.372348470450556
0.372348365185972
0.372348261745239
0.372348160098372
0.372348060215848
0.372347962068603
0.340169538011742
0.340169443249653
0.340169350138321
0.340169258650443
0.340169168759142
0.340169080437957
0.340168993660843
0.340168908402158
0.340168824636663
0.340168742339514
0.293861517335575
0.293861437902134
0.293861359864818
0.293861283200304
0.293861207885638
0.293861133898229
0.293861061215838
0.29386098981658
0.293860919678917
0.293860850781649
0.281285995609278
0.281285929130543
0.281285863830602
0.281285799689571
0.28128573668788
0.281285674806274
0.281285614025802
0.281285554327817
0.281285495693971
0.281285438106207
0.23566073982322
0.235660684274608
0.235660629719629
0.235660576141359
0.235660523523146
0.235660471848606
0.23566042110162
0.235660371266326
0.235660322327123
0.235660274268658
0.200649823777572
0.200649777435522
0.200649731929633
0.200649687245526
0.200649643369056
0.200649600286308
0.200649557983594
0.200649516447448
0.200649475664624
0.200649435622096
0.199097246337572
0.199097207737396
0.199097169839695
0.199097132632274
0.199097096103137
0.199097060240489
0.199097025032725
0.199096990468434
0.199096956536392
0.199096923225562
0.201521798347089
0.201521766246295
0.201521734734683
0.201521703801928
0.201521673437878
0.201521643632547
0.201521614376118
0.201521585658936
0.201521557471508
0.201521529804499
0.202413237660624
0.202413211007069
0.202413184846855
0.202413159171256
0.202413133971692
0.20241310923973
0.202413084967075
0.202413061145575
0.202413037767213
0.202413014824108
0.208792061251015
0.208792039155313
0.208792017472017
0.208791996193764
0.208791975313319
0.208791954823568
0.208791934717519
0.208791914988298
0.208791895629147
0.208791876633427
0.222732117672548
0.222732099384213
0.222732081440056
0.222732063833876
0.222732046559582
0.222732029611185
0.222732012982798
0.222731996668638
0.222731980663018
0.222731964960352
0.272245634210717
0.272245619097579
0.272245604271204
0.27224558972638
0.272245575457987
0.27224556146099
0.272245547730444
0.27224553426149
0.272245521049353
0.27224550808934
0.294707355226487
0.29470734275697
0.294707330525986
0.294707318529159
0.294707306762193
0.294707295220866
0.29470728390103
0.294707272798608
0.294707261909598
0.294707251230064
0.325504729702832
0.325504719430727
0.325504709356708
0.32550469947711
0.325504689788335
0.325504680286846
0.325504670969171
0.325504661831896
0.325504652871671
0.325504644085203
0.340168090988475
0.340168082539879
0.34016807425551
0.340168066132304
0.340168058167252
0.340168050357397
0.340168042699836
0.340168035191718
0.340168027830241
0.340168020612657
0.388412713542886
0.38841270660503
0.388412699803107
0.388412693134558
0.388412686596871
0.388412680187579
0.38841267390426
0.388412667744534
0.388412661706066
0.388412655786561
0.390150434313976
0.390150428625683
0.390150423049717
0.390150417583948
0.390150412226282
0.390150406974663
0.390150401827073
0.390150396781531
0.390150391836091
0.390150386988845
0.410109052102063
0.410109047445612
0.410109042881832
0.410109038408948
0.410109034025219
0.410109029728936
0.410109025518421
0.410109021392026
0.410109017348134
0.410109013385158
0.382489183659023
0.382489179853234
0.382489176123773
0.382489172469166
0.382489168887967
0.382489165378757
0.382489161940144
0.382489158570758
0.38248915526926
0.382489152034331
0.386824333794457
0.386824330688815
0.386824327645937
0.386824324664601
0.38682432174361
0.386824318881786
0.386824316077975
0.386824313331044
0.386824310639882
0.386824308003398
0.34664066087853
0.34664065834821
0.346640655869417
0.346640653441139
0.346640651062385
0.346640648732181
0.346640646449572
0.346640644213621
0.346640642023408
0.346640639878033
0.307765068872835
0.307765066814495
0.307765064798387
0.307765062823676
0.307765060889542
0.307765058995181
0.307765057139804
0.307765055322638
0.307765053542923
0.307765051799915
0.294067761755046
0.294067760083275
0.294067758446062
0.294067756842718
0.294067755272566
0.294067753734944
0.294067752229201
0.294067750754699
0.294067749310813
0.29406774789693
0.2630531630904
0.263053161734728
0.263053160407288
0.263053159107512
0.263053157834844
0.263053156588738
0.263053155368659
0.263053154174082
0.263053153004492
0.263053151859384
0.242243859270327
0.242243858172709
0.242243857098118
0.242243856046087
0.242243855016158
0.242243854007883
0.242243853020822
0.242243852054544
0.242243851108627
0.242243850182655
0.216808036627986
0.216808035740694
0.216808034872153
0.216808034021979
0.216808033189797
0.21680803237524
0.216808031577945
0.21680803079756
0.216808030033739
0.21680802928614
0.212342423914346
0.212342423198201
0.2123424224973
0.212342421811329
0.212342421139979
0.212342420482951
0.212342419839948
0.212342419210681
0.212342418594866
0.212342417992226
0.196370179940326
0.196370179363221
0.196370178798489
0.196370178245872
0.19637017770512
0.196370177175985
0.196370176658228
0.19637017615161
0.1963701756559
0.19637017517087
0.199012525219394
0.199012524755062
0.199012524300757
0.199012523856267
0.199012523421389
0.19901252299592
0.199012522579664
0.199012522172428
0.199012521774023
0.199012521384263
0.195840326164553
0.195840325791542
0.195840325426642
0.195840325069682
0.195840324720496
0.195840324378918
0.19584032404479
0.195840323717952
0.195840323398252
0.195840323085538
0.230289405938319
0.230289405639137
0.230289405346506
0.230289405060288
0.230289404780347
0.230289404506548
0.230289404238762
0.230289403976861
0.230289403720718
0.230289403470213
0.264141504918063
0.264141504678472
0.264141504444165
0.264141504215027
0.26414150399095
0.264141503771824
0.264141503557544
0.264141503348005
0.264141503143106
0.264141502942747
0.297003204971581
0.297003204780012
0.297003204592697
0.297003204409544
0.297003204230463
0.297003204055366
0.297003203884169
0.297003203716785
0.297003203553134
0.297003203393133
0.309903206254331
0.309903206101398
0.309903205951884
0.309903205805715
0.309903205662819
0.309903205523123
0.30990320538656
0.30990320525306
0.309903205122557
0.309903204994985
0.363650471655574
0.363650471533676
0.363650471414521
0.36365047129805
0.363650471184205
0.363650471072927
0.363650470964161
0.363650470857852
0.363650470753945
0.363650470652389
0.383419013093741
0.383419012996731
0.383419012901919
0.383419012809258
0.383419012718699
0.383419012630197
0.383419012543705
0.38341901245918
0.383419012376579
0.383419012295859
0.377501827434478
0.377501827357396
0.377501827282071
0.377501827208467
0.377501827136544
0.377501827066265
0.377501826997594
0.377501826930494
0.377501826864932
0.377501826800873
0.373788368080966
0.373788368019812
0.373788367960064
0.373788367901688
0.373788367844655
0.373788367788934
0.373788367734497
0.373788367681314
0.373788367629357
0.373788367578599
0.392728299469494
0.392728299421054
0.392728299373734
0.392728299327508
0.392728299282353
0.392728299238244
0.392728299195157
0.39272829915307
0.392728299111959
0.392728299071804
0.373632923886546
0.373632923848236
0.373632923810817
0.37363292377427
0.373632923738575
0.373632923703712
0.373632923669662
0.373632923636408
0.37363292360393
0.373632923572212
0.350939408117014
0.350939408086763
0.35093940805722
0.35093940802837
0.350939408000197
0.350939407972685
0.350939407945819
0.350939407919584
0.350939407893966
0.350939407868951
0.309900650767757
0.309900650743906
0.309900650720618
0.30990065069788
0.309900650675678
0.309900650654
0.309900650632836
0.309900650612171
0.309900650591996
0.309900650572298
0.314271018796021
0.314271018777246
0.314271018758917
0.314271018741023
0.314271018723554
0.314271018706501
0.314271018689853
0.314271018673602
0.314271018657737
0.314271018642251
0.253910794834731
0.253910794819975
0.253910794805571
0.253910794791511
0.253910794777788
0.253910794764393
0.253910794751319
0.253910794738558
0.253910794726103
0.253910794713947
0.234222854289379
0.2342228542778
0.234222854266498
0.234222854255469
0.234222854244705
0.2342228542342
0.234222854223948
0.234222854213944
0.23422285420418
0.234222854194653
0.202078700459069
0.202078700449997
0.202078700441143
0.202078700432504
0.202078700424074
0.202078700415849
0.202078700407823
0.202078700399991
0.20207870039235
0.202078700384894
0.173390460516573
0.173390460509476
0.173390460502551
0.173390460495795
0.173390460489203
0.173390460482772
0.173390460476498
0.173390460470377
0.173390460464406
0.173390460458581
0.184882360510779
0.184882360505235
0.184882360499827
0.184882360494552
0.184882360489406
0.184882360484386
0.184882360479489
0.184882360474713
0.184882360470054
0.18488236046551
0.200600121561487
0.200600121557164
0.200600121552947
0.200600121548834
0.200600121544823
0.200600121540911
0.200600121537095
0.200600121533373
0.200600121529744
0.200600121526204
0.201165587853381
0.201165587850014
0.201165587846731
0.20116558784353
0.201165587840408
0.201165587837363
0.201165587834395
0.2011655878315
0.201165587828677
0.201165587825924
0.226058747078883
0.226058747076266
0.226058747073714
0.226058747071226
0.2260587470688
0.226058747066435
0.226058747064128
0.22605874706188
0.226058747059688
0.22605874705755
0.256912516496294
0.256912516494263
0.256912516492282
0.256912516490352
0.256912516488469
0.256912516486634
0.256912516484846
0.256912516483102
0.256912516481402
0.256912516479745
0.299010878193811
0.299010878192236
0.299010878190701
0.299010878189205
0.299010878187747
0.299010878186326
0.299010878184941
0.29901087818359
0.299010878182274
0.299010878180992
0.324205279601039
0.324205279599821
0.324205279598633
0.324205279597476
0.324205279596348
0.324205279595249
0.324205279594178
0.324205279593134
0.324205279592117
0.324205279591125
0.355609755341566
0.355609755340625
0.355609755339708
0.355609755338814
0.355609755337943
0.355609755337094
0.355609755336267
0.355609755335461
0.355609755334676
0.355609755333911
0.377093076703015
0.377093076702289
0.377093076701582
0.377093076700892
0.377093076700221
0.377093076699567
0.377093076698929
0.377093076698308
0.377093076697703
0.377093076697114
0.378949302793293
0.378949302792734
0.378949302792189
0.378949302791658
0.378949302791141
0.378949302790637
0.378949302790147
0.378949302789669
0.378949302789203
0.37894930278875
0.404539803966147
0.404539803965717
0.404539803965298
0.40453980396489
0.404539803964493
0.404539803964106
0.404539803963729
0.404539803963362
0.404539803963004
0.404539803962656
0.39088883127947
0.39088883127914
0.390888831278818
0.390888831278505
0.3908888312782
0.390888831277903
0.390888831277614
0.390888831277332
0.390888831277058
0.390888831276791
0.353380668319946
0.353380668319693
0.353380668319447
0.353380668319207
0.353380668318973
0.353380668318745
0.353380668318524
0.353380668318308
0.353380668318098
0.353380668317893
0.355609155412436
0.355609155412243
0.355609155412054
0.35560915541187
0.355609155411691
0.355609155411517
0.355609155411348
0.355609155411183
0.355609155411022
0.355609155410866
0.306328252892876
0.306328252892728
0.306328252892584
0.306328252892444
0.306328252892307
0.306328252892174
0.306328252892045
0.306328252891919
0.306328252891796
0.306328252891677
0.299285079005356
0.299285079005243
0.299285079005133
0.299285079005026
0.299285079004922
0.29928507900482
0.299285079004722
0.299285079004626
0.299285079004532
0.299285079004441
0.258600428509378
0.258600428509292
0.258600428509208
0.258600428509127
0.258600428509047
0.25860042850897
0.258600428508895
0.258600428508822
0.258600428508751
0.258600428508682
0.230829348305599
0.230829348305534
0.23082934830547
0.230829348305408
0.230829348305348
0.230829348305289
0.230829348305232
0.230829348305176
0.230829348305122
0.23082934830507
0.212043638687626
0.212043638687576
0.212043638687528
0.21204363868748
0.212043638687435
0.21204363868739
0.212043638687347
0.212043638687305
0.212043638687264
0.212043638687224
0.202196157020176
0.202196157020138
0.202196157020101
0.202196157020065
0.202196157020031
0.202196157019997
0.202196157019964
0.202196157019932
0.202196157019901
0.202196157019871
0.182651057311824
0.182651057311795
0.182651057311768
0.182651057311741
0.182651057311714
0.182651057311689
0.182651057311664
0.18265105731164
0.182651057311616
0.182651057311593
0.183121600908408
0.183121600908386
0.183121600908365
0.183121600908345
0.183121600908325
0.183121600908305
0.183121600908287
0.183121600908268
0.183121600908251
0.183121600908233
0.218698832085333
0.218698832085317
0.218698832085301
0.218698832085285
0.21869883208527
0.218698832085256
0.218698832085242
0.218698832085228
0.218698832085214
0.218698832085201
0.234346766394275
0.234346766394263
0.234346766394251
0.234346766394239
0.234346766394228
0.234346766394217
0.234346766394207
0.234346766394196
0.234346766394186
0.234346766394176
0.236194123589539
0.236194123589529
0.23619412358952
0.236194123589512
0.236194123589503
0.236194123589495
0.236194123589487
0.236194123589479
0.236194123589471
0.236194123589464
0.285345481470176
0.285345456551123
0.285345432043462
0.285345407940705
0.285345384236461
0.285345360924436
0.285345337998428
0.285345315452331
0.285345293280127
0.285345271475891
0.314468375212951
0.31446835412723
0.31446833339223
0.314468313002374
0.31446829295217
0.314468273236209
0.314468253849163
0.314468234785784
0.314468216040906
0.314468197609438
0.33379577593849
0.333795758118885
0.333795740597884
0.333795723370699
0.333795706432616
0.333795689778993
0.33379567340526
0.333795657306915
0.333795641479526
0.333795625918728
0.358997460724115
0.358997445683672
0.358997430897123
0.358997416360366
0.358997402069361
0.35899738802013
0.358997374208757
0.358997360631385
0.358997347284217
0.358997334163517
0.38625247617315
0.386252463494399
0.386252451031245
0.386252438780174
0.38625242673773
0.386252414900509
0.38625240326516
0.386252391828383
0.386252380586932
0.38625236953761
0.405382314538904
0.405382303864447
0.405382293372823
0.405382283061031
0.405382272926116
0.40538226296517
0.405382253175328
0.405382243553774
0.405382234097733
0.405382224804474
0.389341500183217
0.389341491207503
0.389341482386636
0.389341473718054
0.389341465199234
0.389341456827693
0.389341448600991
0.389341440516721
0.389341432572517
0.389341424766052
0.35799083181835
0.357990824280522
0.357990816873666
0.357990809595597
0.357990802444166
0.357990795417258
0.35799078851279
0.357990781728716
0.357990775063019
0.357990768513716
0.339273469530234
0.339273463207896
0.339273456996189
0.339273450893256
0.339273444897267
0.339273439006422
0.339273433218949
0.339273427533106
0.339273421947178
0.339273416459479
0.310184979862057
0.310184974565863
0.310184969362999
0.310184964251884
0.310184959230962
0.310184954298706
0.310184949453608
0.31018494469419
0.310184940018995
0.310184935426589
0.282503416089944
0.282503411658912
0.282503407306511
0.282503403031397
0.282503398832252
0.282503394707778
0.282503390656696
0.282503386677752
0.28250338276971
0.282503378931354
0.249253675685754
0.249253671983204
0.249253668346814
0.249253664775445
0.249253661267979
0.249253657823316
0.249253654440373
0.249253651118087
0.249253647855411
0.249253644651315
0.216418671549309
0.216418668459354
0.216418665424992
0.21641866244526
0.216418659519212
0.216418656645916
0.216418653824458
0.216418651053935
0.216418648333463
0.216418645662172
0.197944316273999
0.197944313698513
0.197944311169682
0.197944308686691
0.197944306248739
0.197944303855041
0.197944301504821
0.197944299197319
0.197944296931788
0.197944294707491
0.179903058866881
0.179903056722896
0.179903054618012
0.179903052551542
0.179903050522811
0.179903048531154
0.179903046575918
0.179903044656462
0.179903042772153
0.179903040922372
0.193450007300395
0.19345000551785
0.193450003768033
0.193450002050366
0.193450000364279
0.193449998709212
0.193449997084614
0.193449995489945
0.193449993924672
0.193449992388273
0.191308092930219
0.191308091450036
0.191308089997212
0.191308088571259
0.191308087171698
0.191308085798057
0.191308084449874
0.191308083126692
0.191308081828065
0.191308080553553
0.206857976441267
0.206857975213696
0.206857974008965
0.206857972826665
0.206857971666392
0.20685797052775
0.20685796941035
0.206857968313809
0.206857967237752
0.206857966181809
0.219462150879607
0.219462149862808
0.219462148865054
0.219462147885999
0.219462146925304
0.219462145982638
0.219462145057674
0.21946214415009
0.219462143259571
0.219462142385807
0.245395846068817
0.245395845227655
0.245395844402351
0.245395843592615
0.245395842798163
0.245395842018718
0.245395841254005
0.245395840503755
0.245395839767704
0.245395839045592
0.285907194219026
0.285907193524031
0.285907192842224
0.285907192173361
0.285907191517206
0.285907190873526
0.28590719024209
0.285907189622674
0.285907189015057
0.285907188419021
0.2957599318617
0.29575993128819
0.295759930725633
0.295759930173825
0.295759929632569
0.295759929101669
0.295759928580934
0.295759928070175
0.295759927569207
0.29575992707785
0.355013189139973
0.355013188667303
0.355013188203718
0.355013187749049
0.355013187303129
0.355013186865796
0.355013186436889
0.355013186016252
0.355013185603731
0.355013185199173
0.371731845534255
0.371731845145181
0.371731844763632
0.371731844389469
0.371731844022551
0.371731843662744
0.371731843309913
0.371731842963929
0.371731842624662
0.371731842291987
0.390608704695472
0.390608704375609
0.390608704061972
0.390608703754443
0.390608703452908
0.390608703157253
0.390608702867367
0.390608702583141
0.390608702304468
0.390608702031244
0.378535544621756
0.37853554435912
0.378535544101628
0.378535543849183
0.378535543601688
0.37853554335905
0.378535543121176
0.378535542887976
0.378535542659361
0.378535542435243
0.379642029307062
0.379642029091683
0.379642028880549
0.379642028673579
0.379642028470693
0.379642028271813
0.379642028076862
0.379642027885766
0.37964202769845
0.379642027514842
0.341942974862423
0.341942974686018
