1.78259290740706e-05
3.52864288671299e-05
5.23888126417459e-05
6.91402476154921e-05
8.55477578816144e-05
0.00010161822727128
0.000117358402158575
0.0001327748942094
0.000147874183075376
0.000162662619033873
0.000437874432276057
0.000707442824331266
0.000971480738898251
0.00123009886424103
0.00148340567829388
0.00173150749286418
0.00197450849695109
0.00221251079919776
0.00244561446949445
0.00267391757974949
0.00287940818486486
0.00308065975174021
0.00327775716588079
0.00347078361825663
0.00365982063918891
0.00384494813155864
0.00402624440335096
0.0042037861995486
0.00437764873338729
0.00454790571698606
0.00493709523008983
0.00531826171188473
0.00569156581765189
0.00605716499544413
0.00641521355022266
0.00676586270671075
0.00710926067099026
0.00744555269086615
0.00777488111502342
0.00809738545100091
0.00843447780513223
0.00876458064619213
0.00908783402307764
0.00940437518976218
0.00971433866118442
0.0100178562680191
0.0103150572103526
0.0106060681102843
0.0108910130634762
0.0111700136896717
0.0114431685507137
0.0117106155164728
0.0119724690635768
0.0122288413850722
0.0124798424360846
0.0127255799785656
0.0129661596251456
0.013201684882108
0.013432257191505
0.01365797597243
0.0138325829178719
0.0140034795519865
0.0141707404465554
0.0143344386871856
0.0144946459030212
0.0146514322958606
0.014804866668691
0.014955016453653
0.0151019477394442
0.0152457252981766
0.0153729852049605
0.0154974923440323
0.0156193021848385
0.0157384690924076
0.015855046349425
0.015969086177867
0.0160806397602016
0.0161897572601656
0.0162964878431258
0.0164008796960325
0.0164190388314354
0.0164366735375171
0.0164537947440419
0.0164704131659771
0.0164865393077764
0.016502183467577
0.0165173557413123
0.0165320660267433
0.0165463240274082
0.0165601392564937
0.0164225991024457
0.016287728527791
0.0161554745799119
0.0160257853670428
0.015898610037041
0.0157738987565826
0.015651602690774
0.0155316739831712
0.0154140657361987
0.0152987319919603
0.0150487798188489
0.0148038183413203
0.0145637481659845
0.0143284718873073
0.0140978940478424
0.0138719210992597
0.0136504613641518
0.0134334249986056
0.0132207239555216
0.0130122719486674
0.0126574626618822
0.0123098206581196
0.0119692029721561
0.011635469496096
0.0113084829222163
0.0109881086869552
0.0106742149160199
0.0103666723705933
0.0100653543946163
0.00977013686312419
0.00931445930791481
0.00886805331377475
0.00843073376611006
0.00800231924850324
0.00758263196874395
0.00717149768633922
0.00676874564147354
0.00637420848538991
0.00598772221216329
0.00560912609183879
0.0052019509172883
0.00480309838783537
0.0044124023162779
0.00402969983454092
0.00365483132728992
0.00328764036687187
0.00292797364955763
0.00257568093305961
0.00223061497529921
0.00189263147439897
0.00140676377857234
0.000930872419969816
0.000464758050581257
8.22530278994221e-06
-0.000438917290236269
-0.000876857372561539
-0.00130577884193806
-0.00172586192473284
-0.00213728324935577
-0.00254021591821897
-0.00303488177005288
-0.00351934381640839
-0.003993806046605
-0.00445846837798163
-0.0049135267373343
-0.00535917314072486
-0.00579559577169339
-0.00622297905790608
-0.00664150374627002
-0.00705134697654553
-0.00739469599184353
-0.00773089600729541
-0.00806008997884235
-0.00838241801036805
-0.00869801741073675
-0.00900702274969037
-0.0093095659126275
-0.00960577615428661
-0.00989578015135547
-0.0101797020540282
-0.0102139933621784
-0.0102474387055447
-0.0102800549858887
-0.0103118587709481
-0.0103428663011162
-0.0103730934959863
-0.0104025559607665
-0.010431268992565
-0.0104592475865501
-0.010486506441987
-0.010509838544241
-0.0105325454810932
-0.0105546397775019
-0.0105761337118769
-0.0105970393210081
-0.0106173684048946
-0.0106371325314786
-0.0106563430412826
-0.0106750110519558
-0.0106931474627277
-0.0105931855028015
-0.0104951234264561
-0.0103989232661995
-0.010304547816357
-0.0102119606178326
-0.0101211259431757
-0.0100320087819457
-0.00994457482636971
-0.00985879045728681
-0.00977462273037358
-0.00954458594232082
-0.00931912465495728
-0.00909814737433653
-0.00888156443701335
-0.00866928797343299
-0.00846123187205261
-0.00825731174418028
-0.00805744488951717
-0.00786155026238894
-0.00766954843865243
-0.00757826602069974
-0.00748873576471428
-0.00740092267513692
-0.00731479245813138
-0.00723031150754764
-0.00714744689116601
-0.00706616633721631
-0.00698643822116661
-0.00690823155277611
-0.00683151596340703
-0.00658089700584359
-0.00633530515916214
-0.00609463990083024
-0.00585880271838756
-0.00562769706924415
-0.00540122834128274
-0.00517930381424905
-0.0049618326219142
-0.00474872571499402
-0.00453989582480985
-0.00444283627740653
-0.00434767905671116
-0.00425438616030262
-0.00416292034675642
-0.00407324512042317
-0.00398532471651144
-0.00389912408646898
-0.00381460888365624
-0.00373174544930645
-0.00365050079876644
-0.00350251547555104
-0.00335748563304714
-0.00321535219723406
-0.00307605727565845
-0.00293954413380203
-0.00280575717192196
-0.00267464190235437
-0.00254614492727185
-0.00242021391688579
-0.00229679758808466
-0.00206141394254837
-0.00183079130523538
-0.00160483446237866
-0.00138345010315007
-0.00116654678160221
-0.000954034879371322
-0.000745826569126239
-0.000541835778748395
-0.000341978156228212
-0.000146171035263647
1.37671144959217e-06
0.000145942303324017
0.000287585378774468
0.000426364384229745
0.00056233659797202
0.000695558153499489
0.000826084062421702
0.000953968236896984
0.00107926351162109
0.00120202166537606
0.00132967135477319
0.00145473315080189
0.00157725881639035
0.00169729908007782
0.0018149036567018
0.00193012126767148
0.00204299966083563
0.00215358562995321
0.00226192503377451
0.00236806281474059
0.00242460718459034
0.00248000956901813
0.00253429280901494
0.00258747928902864
0.00263959094609466
0.00269064927878409
0.00274067535597274
0.00278968982543485
0.00283771292226495
0.00288476447713119
0.00292538705697968
0.00296518885019854
0.00300418627512425
0.00304239542193348
0.00307983205920617
0.00311651164035727
0.00315244930993982
0.00318765990982208
0.00322215798524094
0.0032559577907344
0.00323000057762707
0.00320458373793227
0.00317969645334798
0.00315532812141333
0.00313146835119229
0.00310810695904375
0.00308523396447618
0.00306283958608524
0.00304091423757263
0.0030194485238446
0.00300546877402353
0.00299178619958451
0.00297839484280905
0.00296528886470111
0.00295246254261319
0.00293991026792003
0.00292762654373862
0.00291560598269415
0.00290384330473033
0.00289233333496371
0.00292404634845066
0.00295512103836696
0.0029855701639566
0.00301540622938398
0.00304464148883573
0.00307328795152033
0.00310135738656782
0.00312886132783144
0.00315581107859337
0.00318221771617617
0.00308723953430499
0.00299421719617628
0.00290311154703875
0.00281388421384937
0.00272649758964087
0.00264091481820195
0.00255709977906388
0.00247501707278745
0.00239463200654416
0.00231591057998588
0.00249760880144521
0.00267559953583685
0.00284995694913539
0.00302075372582499
0.00318806109852788
0.00335194887704013
0.00351248547678674
0.00366973794670757
0.00382377199658547
0.00397465202382786
0.0041448143999632
0.00431148906661773
0.0044747458183083
0.00463465305575127
0.00479127781373642
0.00494468578844333
0.00509494136421136
0.00524210763977422
0.00538624645396974
0.00552741841093547
0.00555354540550727
0.005579121949783
0.00560415908447222
0.00562866763015126
0.00565265819166468
0.00567614116243883
0.00569912672870892
0.00572162487366175
0.00574364538149539
0.00576519784139776
0.00560334307734483
0.00544478929674695
0.00528947047039462
0.00513732188807071
0.00498828013217173
0.00484228305185664
0.00469926973771276
0.00455918049692842
0.00442195682896214
0.0042875414016985
0.00430924312599781
0.00433049787402532
0.00435131460013918
0.00437170207992606
0.00439166891377602
0.00441122353038593
0.00443037419019276
0.00444912898873823
0.00446749585996617
0.00448548257945383
0.004574876290186
0.00466243346674356
0.00474819087660706
0.00483218455310434
0.00491444981009199
0.00499502125634325
0.00507393280964802
0.00515121771063093
0.00522690853629296
0.00530103721328222
0.00531634112447389
0.00533131935879346
0.00534597846343901
0.00536032485513686
0.00537436482274987
0.00538810452983365
0.00540155001714153
0.00541470720507958
0.00542758189611232
0.00544017977712048
0.00539697218660629
0.00535463726703671
0.00531315758875449
0.00527251607047017
0.00523269597229417
0.00519368088890839
0.00515545474287427
0.00511800177807477
0.00508130655328745
0.00504535393588618
0.00501566799491349
0.00498658175056669
0.00495808323185351
0.00493016070704005
0.00490280267886518
0.00487599787985053
0.00484973526770444
0.00482400402081769
0.00479879353384939
0.00477409341340115
0.00479452644720199
0.00481453470939716
0.0048341267284333
0.00485331086257347
0.00487209530329979
0.004890488078648
0.00490849705647536
0.00492612994766319
0.00494339430925526
0.00496029754753353
0.00502246680271082
0.00508335410507123
0.00514298514246092
0.0052013850899075
0.00525857861987462
0.00531458991231157
0.00536944266450178
0.00542316010071439
0.0054757649816627
0.00552727961377348
0.00543184791934044
0.0053383597414301
0.00524677622953188
0.00515705930926311
0.00506917166684656
0.0049830767338982
0.00489873867251944
0.00481612236068738
0.00473519337793741
0.0046559179913321
0.00469768778250522
0.00473859752184102
0.00477866445270799
0.00481790547420126
0.00485633714802671
0.00489397570524737
0.00493083705289491
0.00496693678044879
0.00500229016618596
0.0050369121834034
0.00493827321647875
0.00484164907806347
0.00474699948502072
0.00465428495881833
0.00456346680943703
0.00447450711960034
0.00438736872932006
0.00430201522075078
0.00421841090334731
0.00413652079931911
0.00410653256150988
0.00407716111979742
0.00404839415430259
0.00402021959110977
0.00399262559734738
0.00396560057636683
0.00393913316301791
0.00391321221901873
0.00388782682841813
0.00386296629314905
0.00386857839451563
0.00387408045074447
0.00387947468229381
0.0038847632651475
0.00388994833170413
0.00389503197164822
0.00390001623280405
0.00390490312197248
0.00390969460575088
0.00391439261133683
0.00387614694975004
0.00383869001144615
0.00380200602960001
0.00376607955212385
0.00373089543537268
0.00369643883797556
0.00366269521479026
0.00362965031097888
0.00359729015620193
0.00356560105892855
0.00349660420030373
0.00342903011624185
0.00336285034294748
0.00329803698483481
0.0032345627031642
0.00317240070490605
0.00311152473182743
0.003051909049797
0.00299352843830384
0.00293635818018591
0.00300264125119564
0.00306758024918355
0.00313120206875948
0.00319353306709436
0.00325459907466839
0.0033144254058043
0.00337303686898991
0.00343045777699422
0.00348671195678118
0.00354182275922517
0.0036193633839748
0.00369532316428353
0.00376973374087435
0.00384262612239388
0.0039140306980529
0.00398397725001412
0.00405249496553209
0.00411961244885032
0.00418535773286044
0.00424975829052821
0.0042085078630229
0.00416810483689084
0.00412853226789967
0.00408977355014003
0.00405181240925923
0.00401463289583044
0.00397821937885429
0.00394255653939061
0.00390762936431752
0.00387342314021533
0.00383621397330286
0.00379977324952033
0.00376408559722095
0.00372913595158602
0.00369490954848867
0.00366139191848052
0.00362856888089846
0.0035964265380894
0.00356495126975055
0.00353412972738279
0.00357059409353188
0.0036063200629736
0.00364132241231391
0.00367561562284974
0.00370921388647488
0.0037421311114677
0.00377438092816311
0.00380597669451109
0.00383693150152401
0.00386725817861503
0.00390499542978987
0.00394196491122851
0.00397818199131885
0.00401366173139973
0.00404841889190146
0.00408246793836346
0.00411582304733158
0.00414849811213745
0.00418050674856225
0.00421186230038718
0.0042605803725655
0.00430830220382442
0.00435504773986289
0.00440083652800175
0.00444568772515053
0.00448962010561484
0.0045326520687476
0.00457480164644729
0.00461608651050615
0.00465652397981147
0.00464328150189589
0.00463030864493185
0.00461760002883605
0.00460515038100115
0.00459295453414599
0.00458100742420882
0.00456930408828267
0.00455783966259204
0.00454660938051001
0.0045356085706151
0.00459390168931525
0.00465099930896476
0.00470692536873406
0.00476170332973561
0.00481535618458391
0.00486790646676434
0.0049193762598146
0.00496978720632249
0.00501916051674376
0.00506751697804352
0.00522061071791363
0.00537056041726751
0.00551742902104806
0.00566127821731934
0.00580216846240137
0.00594015900550242
0.00607530791285836
0.00620767209138939
0.00633730731188349
0.00646426823171611
0.00650242954461391
0.0065397892759156
0.00657636351884909
0.00661216804570403
0.00664721831424859
0.00668152947401777
0.00671511637247611
0.00674799356105688
0.00678017530108066
0.00681167556955546
0.00668215954987904
0.00655527630653743
0.00643097321269896
0.00630919869299245
0.00618990220247777
0.00607303420603714
0.00595854615817856
0.00584639048324323
0.00573652055600886
0.00562889068268088
0.00555613310339521
0.00548485703578733
0.00541503287612658
0.00534663161208421
0.00527962481090497
0.00521398460781538
0.00514968369466381
0.00508669530878776
0.00502499322210389
0.00496455173041616
0.00503422397860449
0.00510246495385107
0.00516930333519183
0.00523476722899935
0.00529888418043427
0.00536168118466769
0.00542318469787913
0.0054834206480344
0.00554241444544807
0.00560019099313449
0.00548329484952498
0.00536878609551908
0.00525661700047521
0.00514674078711926
0.00503911161247748
0.00493368454919071
0.0048304155672024
0.00472926151581286
0.00463018010609248
0.00453312989364667
0.00455887428568049
0.0045840929854402
0.00460879654317715
0.00463299529838858
0.00465669938403172
0.00467991873065349
0.00470266307043766
0.00472494194117108
0.00474676469013054
0.00476814047789188
0.0046905189609468
0.00461448871226932
0.00454001791950303
0.00446707540556111
0.00439563061592117
0.00432565360617411
0.00425711502982213
0.00418998612632079
0.00412423870936018
0.00405984515538054
0.00408212626555287
0.00410395801448683
0.0041253494150448
0.00414630929991189
0.00416684632519887
0.00418696897397291
0.00420668555971779
0.0042260042297249
0.00424493296841637
0.00426347960060176
0.00432765067945171
0.00439051186398618
0.00445208939056686
0.00451240897146967
0.00457149580536522
0.00462937458758952
0.00468606952020944
0.00474160432188665
0.00479600223754445
0.00484928604784111
0.00487927795900198
0.00490865506990116
0.00493742971554912
0.00496561398460967
0.00499321972432566
0.00502025854534625
0.00504674182645763
0.00507268071921909
0.00509808615250634
0.005122968836964
0.00511958005208115
0.00511625836275829
0.00511300246228821
0.0051098110700964
0.0051066829312175
0.00510361681578224
0.00510061151851467
0.00509766585823938
0.00509477867739863
0.00509194884157913
0.00519524221359737
0.00529641636989668
0.00539551375776998
0.00549257597686467
0.00558764379613332
0.00568075717044526
0.00577195525686589
0.00586127643061046
0.00594875830067868
0.0060344377251766
0.00597801952402581
0.0059227471744637
0.0058685977985169
0.00581554897531395
0.00576357873194257
0.00571266553448972
0.00566278827926092
0.00561392628417519
0.00556605928033206
0.00551916740374732
0.00549376780029669
0.00546888378069284
0.00544450507309838
0.00542062161090209
0.00539722352861347
0.00537430115783947
0.0053518450233417
0.0053298458391724
0.00530829450488785
0.00528718210183736
0.00544640791662589
0.00560236726455625
0.00575512555986218
0.0059047469104965
0.00605129414425357
0.00619482883436927
0.00633541132460882
0.00647310075385298
0.00660795508019228
0.00674003110453948
0.00668818533588256
0.00663738604733626
0.00658761236654333
0.00653884383832465
0.00649106041633442
0.00644424245488215
0.00639837070091835
0.00635342628618043
0.00630939071949569
0.00626624587923825
0.00625367049357177
0.00624134189607736
0.00622925521328095
0.00621740566926334
0.00620578858370756
0.00619439936998515
0.00618323353328084
0.00617228666875467
0.00616155445974088
0.00615103267598284
0.00613080648338254
0.0061109856757229
0.00609156220577625
0.0060725281872064
0.00605387589134929
0.00603559774405817
0.00601768632261167
0.0060001343526839
0.00598293470537502
0.0059660803943013
0.00593116261610558
0.00589695385534853
0.00586343998672742
0.00583060716715044
0.00579844183009127
0.00576693068005656
0.0057360606871641
0.00570581908182936
0.00567619334955841
0.00564717122584489
0.00552984407619597
0.00541491910546242
0.00530234829878342
0.00519208460019007
0.00508408189342758
0.00497829498316103
0.00487467957655711
0.00477319226523417
0.00467379050757342
0.00457643261138381
0.00447670081598081
0.00437902170424973
0.0042833542360388
0.00418965819054172
0.00409789414991127
0.00400802348320057
0.00392000833062561
0.0038338115881425
0.00374939689233328
0.00366672860559404
0.00380335801314928
0.00393720418454726
0.00406832284056934
0.00419676858881829
0.00432259494597976
0.00444585435963861
0.00456659822965878
0.00468487692913565
0.00480073982492919
0.00491423529778653
0.00491078484438877
0.0049074106664439
0.00490411127670185
0.00490088521745654
0.00489773105995418
0.00489464740381348
0.00489163287645725
0.00488868613255556
0.00488580585348003
0.00488299074676894
0.00473001352744097
0.00458017858625222
0.00443342307443784
0.00428968539814306
0.00414890519332615
0.00401102330116342
0.00387598174394616
0.00374372370145967
0.00361419348783479
0.00348733652886239
0.00369896425171409
0.00390627413927892
0.00410935261258806
0.004308284366351
0.00450315240347923
0.00469403806891955
0.00488102108281052
0.00506417957297584
0.00524359010676776
0.00541932772227354
0.00548124280710364
0.00554189014435144
0.00560129514523759
0.00565948271346631
0.00571647725537394
0.00577230268987459
0.00582698245820676
0.00588053953348509
0.00593299643006108
0.00598437521269645
0.00603195622562416
0.00607855813703581
0.00612420059151103
0.00616890284139385
0.00621268375463559
0.00625556182248079
0.00629755516699953
0.00633868154846894
0.0063789583726072
0.00641840269766276
0.00630413588859754
0.00619220401749266
0.00608256041449822
0.00597515934190892
0.00586995597552121
0.00576690638636327
0.00566596752279045
0.0055670971929388
0.00547025404752963
0.00537539756301791
0.00535149804842048
0.00532809186239402
0.00530516917286261
0.00528272034399363
0.00526073593227232
0.00523920668265488
0.00521812352479845
0.00519747756936665
0.00517726010440884
0.00515746259181193
0.00520744630705615
0.00525641133723627
0.00530437810474301
0.00535136662397298
0.00539739650948725
0.00544248698400668
0.00548665688624743
0.00552992467859955
0.00557230845465222
0.00561382594656834
0.00556346095881939
0.00551413027243442
0.00546581323066686
0.00541848958922013
0.00537213950799835
0.00532674354302216
0.00528228263850616
0.00523873811909484
0.00519609168225383
0.00515432539081332
0.00499250374801477
0.00483400624523498
0.00467876639037122
0.00452671901898233
0.00437780026773694
0.00423194754839287
0.00408909952229711
0.00394919607539562
0.00381217829374318
0.00367798843950303
0.00361921996575846
0.00356167806191266
0.00350533818459706
0.00345017628004558
0.0033961687743037
0.00334329256363346
0.00329152500511033
0.00324084390740824
0.00319122752176892
0.00314265453315185
0.00315499701869284
0.00316711373959394
0.00317900920229891
0.00319068782261104
0.00320215392750663
0.00321341175691235
0.00322446546544699
0.0032353191241284
0.00324597672204632
0.00325644216800183
0.00308382716006122
0.00291477684875691
0.00274921987824142
0.00258708631702101
0.0024283076294719
0.00227281664792632
0.00212054754531675
0.00197143580836754
0.00182541821132263
0.00168243279019883
0.0018335172792801
0.00198154621973503
0.00212658070952199
0.00226868062551027
0.00240790464790202
0.00254431028416594
0.00267795389249206
0.00280889070477764
0.00293717484915313
0.00306285937205778
0.00299314506750177
0.00292488750032245
0.00285805748087054
0.00279262640177887
0.00272856622631941
0.00266584947699315
0.00260444922434831
0.0025443390760221
0.00248549316600186
0.00242788614410086
0.00246560871354027
0.00250259162038198
0.00253884961268508
0.00257439714322806
0.00260924837541627
0.00264341718907136
0.0026769171861048
0.00270976169607813
0.00274196378165181
0.0027735362439253
0.00288126501298566
0.00298681515244602
0.00309023020674137
0.00319155285006696
0.00329082490378418
0.00338808735347828
0.00348338036567503
0.00357674330422296
0.00366821474634801
0.00375783249838701
0.0037243787932015
0.00369163046766565
0.00365957336075433
0.00362819359382445
0.00359747756497
0.00356741194348995
0.00353798366446699
0.00350917992345454
0.00348098817127018
0.00345339610889324
0.00357049697994282
0.0036852195330544
0.00379761131070296
0.00390771890548441
0.00401558797911435
0.00412126328104688
0.00422478866672092
0.00432620711544174
0.00442556074790476
0.00452289084336892
0.0044606040317374
0.00439960525767637
0.00433986870494936
0.00428136907267895
0.00422408156504282
0.00416798188117586
0.00411304620527436
0.00405925119689815
0.00400657398146671
0.00395499214094546
0.00394544296475516
0.00393610600109021
0.00392697695145497
0.00391805160289843
0.00390932582630655
0.00390079557472865
0.00389245688173745
0.00388430585982193
0.00387633869881226
0.00386855166433643
0.00388608041047689
0.00390326668303445
0.0039201172797265
0.00393663886223502
0.00395283795893059
0.00396872096754189
0.00398429415777192
0.00399956367386183
0.00401453553710367
0.00402921564830273
0.00398894537047442
0.00394951540401687
0.00391090887594737
0.00387310925002074
0.00383610031999905
0.00379986620305582
0.00376439133331234
0.00372966045550329
0.00369565861876898
0.00366237117057206
0.00360813318323749
0.00355502498448751
0.00350302389909803
0.00345210770440636
0.00340225462126516
0.00335344330517762
0.00330565283760976
0.00325886271747674
0.0032130528527994
0.00316820355252781
0.00318937046185725
0.00321012569631949
0.00323047741784817
0.00325043362505531
0.0032700021565029
0.00328919069390917
0.00330800676529073
0.00332645774804199
0.00334455087195303
0.00336229322216714
0.00344562820353476
0.00352727447000599
0.00360726574102548
0.00368563506243534
0.00376241481995211
0.0038376367523743
0.00391133196452576
0.00398353093994031
0.00405426355329268
0.00412355908258092
0.00415721199990688
0.00419018644383496
0.00422249592809011
0.00425415369653789
0.00428517272858768
0.00431556574448774
0.0043453452105145
0.00437452334405817
0.00440311211860662
0.00443112326862977
0.00439756370795506
0.00436469987996214
0.00433251780267553
0.00430100377348311
0.00427014436355639
0.00423992641238236
0.00421033702240483
0.00418136355377306
0.00415299361919555
0.00412521507889677
0.00412986409080827
0.00413442805924186
0.00413890862368792
0.00414330739104359
0.00414762593627281
0.00415186580305309
0.00415602850440958
0.0041601155233365
0.00416412831340623
0.00416806829936643
0.00427285336495135
0.00437549961661154
0.00447604979806601
0.00457454579968852
0.00467102867558238
0.00476553866031374
0.00485811518531036
0.00494879689493251
0.00503762166222253
0.00512462660433947
0.00526523650888677
0.00540296315973911
0.00553786421959826
0.005669996200208
0.00579941448538134
0.00592617335356726
0.00605032599996626
0.00617192455820356
0.00629102012156909
0.00640766276383262
0.00639960424172081
0.0063916970481523
0.00638393814543067
0.00637632455748292
0.0063688533686376
0.00636152172242753
0.00635432682041651
0.00634726592104977
0.00634033633852743
0.00633353544170076
0.0062218120801204
0.00611236578398319
0.00600515098248175
0.00590012301590871
0.00579723811744814
0.00569645339533136
0.00559772681534982
0.00550101718371792
0.00540628413027877
0.00531348809204599
0.00531168597806684
0.00530991766050097
0.00530818245476415
0.00530647969089184
0.00530480871326104
0.0053031688803179
0.00530155956431105
0.00529998015103038
0.00529843003955124
0.00529690864198394
0.00532127321127983
0.00534513527464773
0.0053685048902797
0.00539139191660287
0.00541380601629062
0.0054357566601938
0.00545725313119346
0.00547830452797677
0.0054989197687376
0.00551910759480332
0.0055360296208481
0.00555259956058178
0.00556882447778643
0.00558471129650053
0.00560026680383187
0.00561549765271454
0.0056304103646108
0.00564501133215934
0.00565930682177068
0.00567330297617095
0.00559069079810816
0.00550976565480341
0.00543049381850809
0.00535284223656154
0.00527677851791104
0.00520227091990154
0.00512928833532999
0.00505780027975886
0.0049877768790836
0.00491918885734915
0.00495229580967253
0.00498472543885892
0.00501649133697009
0.00504760682622849
0.00507808496443745
0.00510793855029305
0.00513718012859017
0.00516582199532466
0.00519387620269375
0.00522135456399674
0.00514114698391424
0.00506258246750317
0.00498562819208615
0.0049102519923636
0.0048364223472938
0.00476410836723564
0.00469327978134897
0.00462390692524713
0.00455596072889691
0.00448941270476075
0.0045904917203243
0.00468950539131568
0.00478649511736877
0.00488150147339493
0.00497456422610633
0.00506572235020926
0.00515501404427379
0.00524247674628642
0.00532814714889198
0.00541206121433099
0.00536564432313053
0.00532017737220562
0.00527564145579253
0.00523201804822792
0.00518928899638069
0.00514743651223563
0.00510644316562586
0.00506629187711085
0.00502696591099746
0.0049884488685008
0.00501617190616518
0.005043330394129
0.00506993575502309
0.00509599918617617
0.00512153166415799
0.00514654394923194
0.00517104658971895
0.00519504992627461
0.00521856409608108
0.00524159903695559
0.00518895441267378
0.00513739165008352
0.0050868892570749
0.00503742617398984
0.00498898176501513
0.00494153580974798
0.00489506849493086
0.00484956040635193
0.00480499252090801
0.0047613461988267
0.00477113162264338
0.00478072562345489
0.00479013221667005
0.00479935534108905
0.0048083988604816
0.0048172665651339
0.00482596217336518
0.00483448933301427
0.00484285162289698
0.00485105255423481
0.00477162449809031
0.00469383505453755
0.00461765165444109
0.0045430423831469
0.0044699759674444
0.00439842176278978
0.00432834974078537
0.00425973047690993
0.0041925351384948
0.00412673547294108
0.00412543028890413
0.00412417188170486
0.00412295956885872
0.00412179268594921
0.00412067058632248
0.00411959264078851
0.00411855823732883
0.00411756678081055
0.00411661769270655
0.00411571041082197
0.0041246913463354
0.00413351115023651
0.00414217334755532
0.00415068139794347
0.00415903869704279
0.00416724857782682
0.00417531431191616
0.00418323911086786
0.00419102612743971
0.00419867845682961
0.00425143760033452
0.00430314069647863
0.00435380923450031
0.0044034642801664
0.00445212648430698
0.00449981609118017
0.00454655294666989
0.00459235650632036
0.00463724584321031
0.00468123965567024
0.00470246894210071
0.00472328769416061
0.00474370455122287
0.00476372798659271
0.00478336631089971
0.00480262767542259
0.00482152007534801
0.00484005135296464
0.00485822920079391
0.00487606116465865
0.00474664019279542
0.00461989972812638
0.00449578662108928
0.0043742487907478
0.00425523520349672
0.00413869585219359
0.0040245817357082
0.00391284483888171
0.00380343811288704
0.00369631545598263
0.00358582960576023
0.00347765322944664
0.00337174065658359
0.00326804713648863
0.00316652881994264
0.00306714274124425
0.0029698468006236
0.00287459974700836
0.00278136116113494
0.00269009143899799
0.00265549968818301
0.00262167764906654
0.00258861052826614
0.00255628383616411
0.0025246833809197
0.00249379526260142
0.00246360586743725
0.00243410186218032
0.00240527018858762
0.00237709805800971
0.00258160461356898
0.00278198930282379
0.00297833530779063
0.00317072415850473
0.0033592357661485
0.00354394845551789
0.00372493899683962
0.00390228263695254
0.0040760531298656
0.00424632276670503
0.00424233629020731
0.00423849118169667
0.00423478543431527
0.00423121709179452
0.00422778424753764
0.00422448504372089
0.00422131767041304
0.00421828036471289
0.00421537140990422
0.00421258913462802
0.00421792821315193
0.0042232268381786
0.00422848675018186
0.00423370966633425
0.00423889728107032
0.00424405126663875
0.00424917327364384
0.00425426493157626
0.00425932784933346
0.00426436361572992
0.00422354925049825
0.00418365025071895
0.00414464934794794
0.00410652963103404
0.00406927453907298
0.00403286785450239
0.00399729369633517
0.00396253651352822
0.00392858107848399
0.00389541248068207
0.00389861589400946
0.00390184745909614
0.0039051077848616
0.00390839748141491
0.00391171716013139
0.00391506743372771
0.00391844891633551
0.00392186222357357
0.0039253079726185
0.00392878678227396
0.00397635885113386
0.0040230620076101
0.00406891495166371
0.00411393602417245
0.00415814321421207
0.00420155416619152
0.00424418618684555
0.00428605625208713
0.00432718101372274
0.00436757680603307
0.00444694449671184
0.00452480142544631
0.00460117929321649
0.00467610918337561
0.00474962157409951
0.00482174635058671
0.00489251281701413
0.00496194970825336
0.00503008520135227
0.00509694692678652
0.0050123260018463
0.0049295647928119
0.00484862771993356
0.00476947993054501
0.00469208728461658
0.0046164163405968
0.00454243434153668
0.00447010920149108
0.00439940949219138
0.00433030442998424
0.00440360261493875
0.00447554858605933
0.00454617119823347
0.00461549874740426
0.00468355898183666
0.00475037911315774
0.00481598582717538
0.00488040529447979
0.00494366318083221
0.00500578465734511
0.00497305223403934
0.00494115400158041
0.00491007524754198
0.00487980157158
0.00485031887927144
0.00482161337607523
0.00479367156141321
0.00476648022286821
0.00474002643049746
0.00471429753125845
0.00469623545381123
0.00467873120988856
0.00466177579787192
0.00464536041485344
0.00462947645273161
0.00461411549438373
0.00459926930991375
0.00458492985297389
0.00457108925715856
0.00455773983246908
0.00461163899661447
0.00466464579463418
0.00471678043619601
0.00476806274691891
0.00481851217610976
0.00486814780434385
0.00491698835089235
0.00496505218099956
0.00501235731301312
0.00505892142536992
0.00513280411583781
0.00520540528841949
0.00527675314694551
0.00534687535214797
0.00541579903256166
0.00548355079520543
0.00555015673604801
0.00561564245026275
0.00568003304227527
0.00574335313560838
0.0057447132282249
0.00574629938706147
0.00574810985960724
0.00575014294893435
0.00575239701260683
0.00575487046160925
0.00575756175929476
0.00576046942035195
0.0057635920097902
0.00576692814194312
0.00586524166898897
0.00596182343714744
0.00605671108127044
0.00614994150532475
0.00624155089700673
0.00633157474206236
0.00642004783831832
0.00650700430943008
0.00659247761835233
0.0066765005805376
0.00665148435706968
0.00662728774396104
0.00660389753812851
0.0065813008208895
0.00655948495224649
0.0065384375652832
0.0065181465606701
0.00649860010127691
0.00647978660689011
0.00646169474903319
0.00643807680922431
0.00641528643424499
0.00639331046210662
0.00637213601392121
0.00635175048818314
0.0063321415551624
0.00631329715140679
0.00629520547435094
0.00627785497703012
0.00626123436289636
0.00636213915198349
0.00646135744230873
0.00655892657951024
0.00665488318291483
0.00674926315997449
0.0068421017204108
0.00693343339007309
0.00702329202451588
0.00711171082230125
0.00719872233803174
0.00715442176499887
0.00711144082451029
0.00706975690705039
0.00702934787323603
0.00699019204429044
0.00695226819270394
0.00691555553307784
0.0068800337131476
0.00684568280498184
0.00681248329635358
0.00688629732504196
0.00695905439022926
0.00703077961551992
0.00710149763989337
0.00717123262723374
0.00724000827566484
0.00730784782669454
0.00737477407417212
0.00744080937306255
0.00750597564804101
0.00750581700365047
0.00750615370580273
0.00750697998564254
0.00750829020493088
0.00751007885322963
0.0075123405451382
0.00751507001758133
0.00751826212714667
0.00752191184747157
0.00752601426667762
0.00747262429085711
0.00742086529225092
0.00737070891693113
0.00732212739034838
0.00727509350549883
0.00722958061132334
0.00718556260133422
0.00714301390246504
0.00710190946413895
0.00706222474755113
0.00708256328305437
0.00710307209848488
0.00712375218066217
0.00714460450703815
0.00716563004559336
0.00718682975473062
0.00720820458316623
0.00722975546981877
0.00725148334369538
0.00727338912377582
0.00717574075888041
0.00708072661805713
0.00698829846786088
0.00689840904528522
0.00681101203801754
0.00672606206508449
0.00664351465787986
0.00656332624156721
0.00648545411684975
0.00640985644210016
0.0063449654512157
0.0062820940300803
0.00622120628257413
0.00616226703280362
0.00610524181031392
0.00605009683559252
0.00599679900585803
0.00594531588112857
0.00589561567056401
0.00584766721907672
0.00576575110531274
0.00568625791314914
0.00560914367530774
0.00553436530167821
0.00546188056134532
0.00539164806497112
0.00532362724752473
0.00525777835135301
0.00519406240958512
0.00513244122986444
0.00511990777347621
0.00510843083736635
0.00509799375296976
0.0050885801789949
0.0050801740944025
0.00507275979151998
0.00506632186928925
0.00506084522664493
0.00505631505602065
0.00505271683698063
0.00515575983397185
0.00525753925980801
0.00535808479255864
0.00545742550697995
0.00555558988605928
0.0056526058323245
0.00574850067892287
0.00584330120047391
0.00593703362370118
0.00602972363784695
0.00607046311756515
0.00611125412076175
0.00615209988873874
0.00619300358218182
0.00623396828220946
0.0062749969913972
0.00631609263477731
0.00635725806081468
0.00639849604235916
0.00643980927757506
0.00652052805647082
0.00660052105276823
0.00667980688049163
0.00675840376027329
0.00683632952661931
0.00691360163502659
0.0069902371689539
0.00706625284664999
0.00714166502784178
0.00721648972028526
0.00737156622866184
0.00752442935902289
0.00767512725988087
0.00782370709048941
0.00797021503999163
0.00811469634618262
0.00825719531389346
0.0083977553330046
0.00853641889609612
0.00867322761574209
0.00862129841098283
0.00857142693012289
0.00852357555869443
0.00847770739942107
0.00843378625721149
0.00839177662445084
0.00835164366658389
0.00831335320798431
0.00827687171810441
0.00824216629789964
0.00831245432727565
0.0083823378648612
0.00845182818652472
0.00852093630207007
0.00858967295987314
0.00865804865142403
0.00872607361577677
0.00879375784390845
0.00886111108298982
0.00892814284056905
0.00898202229913983
0.0090358618089529
0.00908966491517754
0.00914343504446039
0.00919717550659802
0.00925088949617541
0.00930458009417076
0.00935825026952754
0.00941190288069465
0.00946554067713513
0.00943077237288888
0.00939780649605831
0.00936660921342203
0.00933714731270667
0.00930938818946692
0.00928329983422818
0.00925885081988655
0.00923601028936113
0.00921474794349363
0.00919503402919061
0.0093188262195557
0.00944119821400618
0.00956218008036847
0.00968180122415832
0.00980009040113002
0.00991707572957569
0.0100327847023797
0.0101472441988335
0.0102604804962154
0.0103725192811405
0.0103071397250969
0.010244225321399
0.0101837277439133
0.0101255995629893
0.0100697942268511
0.010016266043363
0.00996497016216314
0.00991586255715574
0.00986890000935702
0.00982404009008652
0.00978896092241685
0.00975574357681189
0.0097243510651211
0.00969474706234006
0.0096668958926964
0.00964076251601749
0.00961631251437424
0.00959351207899585
0.00957232799744982
0.00955272764108244
0.00960822444345217
0.00966373374284698
0.00971925476187966
0.00977478665665973
0.00983032851751122
0.00988587936968042
0.00994143817403438
0.00999700382775029
0.0100525751649959
0.0101081509576018
0.0102098565460471
0.0103106183590881
0.010410453909398
0.010509380272013
0.0106074140925244
0.0107045715951111
0.0108008685904186
0.010896320483286
0.010990942280325
0.0110847485973532
0.0111141515629958
0.0111440709719508
0.0111744942174591
0.0112054088513911
0.0112368025805766
0.0112686632632167
0.0113009789053735
0.011333737657538
0.0113669278112737
0.0114005377959353
0.0114704090402546
0.0115399423956488
0.0116091413948734
0.0116780094023321
0.0117465496170228
0.0118147650754338
0.0118826586543892
0.0119502330738468
0.0120174908996486
0.0120844345462251
0.0121658739813985
0.0122467000665513
0.0123269208526617
0.0124065441283543
0.0124855774248135
0.0125640280206096
0.0126419029464369
0.0127192089897676
0.0127959526994217
0.0128721403900558
0.0130918516501286
0.0133080653470456
0.0135208462266869
0.0137302576375723
0.0139363615585732
0.0141392186260813
0.0143388881606442
0.0145354281930791
0.0147288954900755
0.0149193455792957
0.0150070956765766
0.0150939806001098
0.0151800113880995
0.0152651987524468
0.0153495530851512
0.0154330844645964
0.0155158026617221
0.0155977171460839
0.015678837091804
0.0157591713834142
0.015821743636493
0.0158838953486442
0.0159456276013958
0.0160069413481881
0.0160678374169314
0.0161283165125252
0.0161883792193391
0.0162480260036569
0.0163072572160851
0.0163660730939247
0.0164009180087468
0.0164358306229649
0.0164708011838778
0.0165058200276196
0.0165408775775067
0.0165759643424319
0.0166110709153032
0.016646187971528
0.0166813062675395
0.0167164166393679
0.0166804871361992
0.016645987573897
0.0166128798812913
0.0165811266433815
0.0165506910884732
0.016521537075585
0.0164936290821219
0.0164669321918087
0.0164414120828784
0.0164170350165114
0.0164034404362558
0.0163907248374514
0.0163788601314645
0.016367818689522
0.016357573333913
0.0163480973293808
0.0163393643747013
0.0163313485944443
0.016324024530913
0.0163173671362599
0.0164274143416016
0.0165357000509137
0.0166422480161034
0.016747081418192
0.0168502228792725
0.0169516944742425
0.0170515177423166
0.0171497136983228
0.0172463028437871
0.0173413051778113
0.0171829942089344
0.0170282957230323
0.0168771249939148
0.0167293988969988
0.0165850358779619
0.0164439559220369
0.016306080523936
0.0161713326583885
0.0160396367512843
0.015910918651407
0.0159999322226162
0.0160873755387112
0.0161732666880288
0.0162576233143738
0.0163404626267347
0.0164218014088185
0.0165016560284082
0.016580042446548
0.0166569762265575
0.01673247254288
0.0168548897277241
0.0169749076293327
0.0170925601404031
0.0172078804024768
0.0173209008219228
0.0174316530856152
0.0175401681763104
0.0176464763877301
0.0177506073393552
0.0178525899909376
0.017825328335734
0.0177985804098966
0.0177723211243112
0.0177465258269708
0.017721170295326
0.0176962307288007
0.0176716837414696
0.0176475063548951
0.0176236759911199
0.0176001704658107
0.0176114505173333
0.0176223053052487
0.0176327279332402
0.0176427115901457
0.0176522495494669
0.017661335168901
0.0176699618898923
0.0176781232372049
0.0176858128185145
0.0176930243240195
0.0176341552960469
0.0175761405331527
0.0175189470594567
0.0174625425176472
0.0174068951579331
0.0173519738272273
0.017297747958556
0.0172441875606904
0.0171912632079956
0.0171389460304915
0.017236788764204
0.0173321161686689
0.0174249623504002
0.0175153607083588
0.0176033439495204
0.0176889441041418
0.0177721925407294
0.0178531199807172
0.0179317565128593
0.018008131607343
0.018173676363204
0.0183351430869889
0.0184925969738066
0.0186461019051147
0.0187957204764875
0.0189415140248365
0.0190835426550926
0.0192218652663618
0.0193565395775633
0.0194876221525621
0.0195182203667129
0.0195473240281552
0.0195749466075724
0.019601101310532
0.0196258010843457
0.0196490586247977
0.0196708863827428
0.0196912965705777
0.0197103011685866
0.0197279119311651
0.0196117496761794
0.0194969304340535
0.0193834110030719
0.0192711490639981
0.0191601031640257
0.0190502327010548
0.0189414979082847
0.0188338598391172
0.0187272803523658
0.0186217220977607
0.0185405613172112
0.0184598694247567
0.0183796209641427
0.0182997910230978
0.0182203552240763
0.0181412897151861
0.0180625711612992
0.0179841767353403
0.0179060841097497
0.0178282714481172
0.0177703838273441
0.0177123307792004
0.017654099960526
0.0175956793263571
0.0175370571255825
0.0174782218966852
0.0174191624635684
0.0173598679314623
0.0173003276829114
0.0172405313738389
0.0172241257003849
0.0172065491247793
0.0171878100108437
0.0171679166231097
0.0171468771304006
0.0171246996093368
0.0171013920477688
0.0170769623481358
0.0170514183307536
0.0170247677370322
0.0168908907900967
0.0167580981245352
0.0166263537238312
0.0164956223742362
0.0163658696502639
0.0162370619004688
0.016109166233503
0.015982150504445
0.0158559833013958
0.0157306339323361
0.0157801263860677
0.0158268093137426
0.0158707255140064
0.0159119170293209
0.0159504251625648
0.0159862904932945
0.0160195528936717
0.0160502515440624
0.0160784249483163
0.0161041109487304
0.0161212727175847
0.0161361453575569
0.0161487623210861
0.0161591565056506
0.0161673602662521
0.0161734054276387
0.0161773232962742
0.0161791446720555
0.0161788998597861
0.0161766186804073
0.0161710182998254
0.0161634666857508
0.0161539917342562
0.0161426209109139
0.0161293812606759
0.0161142994175443
0.0160974016140354
0.0160787136904414
0.0160582611038939
0.016036068937233
0.0159401858991933
0.0158440878573984
0.0157477692942708
0.0156512249412317
0.0155544497748582
0.0154574390131029
0.0153601881115741
0.0152626927598766
0.0151649488780093
0.0150669526128214
0.0150141446919997
0.0149601457446486
0.0149049712214421
0.0148486364139499
0.0147911564588042
0.0147325463417664
0.0146728209016965
0.0146119948344268
0.0145500826965412
0.0144870989090623
0.0143935344755729
0.0142995320657491
0.0142050936029358
0.0141102211306545
0.0140149168110164
0.0139191829231496
0.0138230218616394
0.0137264361349833
0.0136294283640576
0.013532001280597
0.0134582187018294
0.0133835293535978
0.0133079461624622
0.0132314819627504
0.013154149499037
0.0130759614285544
0.012996930323536
0.0129170686734946
0.0128363888874354
0.0127549032960056
0.0126101268793389
0.0124658502779912
0.0123220599596959
0.0121787428338456
0.0120358862431024
0.0118934779551557
0.0117515061546249
0.0116099594351047
0.0114688267913492
0.0113280976115929
0.01114040171882
0.0109540600898841
0.0107690438188201
0.0105853247517463
0.0104028754720664
0.0102216692859476
0.0100416802080678
0.00986288294762875
0.00968525289462713
0.00950876610638109
0.00946625376550501
0.00942211525354963
0.00937638305627021
0.00932908918683214
0.00928026519530053
0.009229942177919
0.00917815078618269
0.00912492123570883
0.00907028331490958
0.00901426639347055
0.00885048072748597
0.00868755514691354
0.00852547415492956
0.00836422273990567
0.00820378636553791
0.00804415096115259
0.00788530291218568
0.00772722905083209
0.00756991664686144
0.00741335339859729
0.00736326513257417
0.00731173505969061
0.00725879549132532
0.00720447826660451
0.0071488147614747
0.00709183589757403
0.00703357215090606
0.00697405356031985
0.00691330973580064
0.00685136986657477
0.00685100893896225
0.00684822282500139
0.00684306524071908
0.00683558899795025
0.00682584602185003
0.00681388736803608
0.0067997632393687
0.00678352300237614
0.00676521520333193
0.00674488758399187
0.00661359703539265
0.00648261408015543
0.00635193942335607
0.00622157391816775
0.00609151856213818
0.00596177449352279
0.00583234298767294
0.0057032254534782
0.00557442342986168
0.0054459385823275
0.0052547519131878
0.00506517803543981
0.00487719311922638
0.00469077396428394
0.00450589798641177
0.00432254320419486
0.00414068822597521
0.00396031223706698
0.00378139498721058
0.00360391677826123
0.0036169586006036
0.00362752514679009
0.00363567588362197
0.00364146923375664
0.00364496259548479
0.00364621236209646
0.00364527394084434
0.00364220177151239
0.00363704934459817
0.0036298692191165
0.00362114222091655
0.00361048111894513
0.00359793595699608
0.0035835559114461
0.00356738930734893
0.00354948363419416
0.003529885561337
0.00350864095310615
0.0034857948835962
0.0034613916511512
0.00335408845696096
0.00324698283523809
0.00314008345143809
0.00303339891702198
0.0029269377891538
0.00282070857039255
0.00271471970837843
0.00260897959551417
0.00250349656864155
0.00239827890871326
0.00218221614949853
0.00196871306917936
0.00175773219149787
0.00154923689333389
0.00134319138615274
0.00113956069781459
0.000938310654738108
0.000739407864411817
0.000542819698246075
0.00034851427475945
0.000283941633700929
0.000218976799851631
0.000153642335829953
8.79604428897254e-05
2.19529665704218e-05
-4.43585977730881e-05
-0.000110953099558567
-0.000177809727679508
-0.000244908005321003
-0.000312227784885621
-0.00050347509948667
-0.000692368224371923
-0.000878938729965733
-0.00106321748300093
-0.00124523466223163
-0.00142501977383674
-0.00160260166652027
-0.00177800854631399
-0.00195126799108859
-0.00212240696477845
-0.00229041474910456
-0.00245637546396111
-0.00262031388856973
-0.00278225425085843
-0.00294222024016587
-0.00310023501969419
-0.00325632123871525
-0.00341050104453477
-0.00356279609421931
-0.00371322756609024
-0.00384941297033615
-0.00398403002605135
-0.00411709345348821
-0.00424861763950611
-0.00437861664593363
-0.00450710421776376
-0.0046340937911853
-0.00475959850145333
-0.00488363119060205
-0.00500620441500249
-0.00505193162737739
-0.00509776932657078
-0.00514369832269586
-0.00518969978667199
-0.00523575524469621
-0.00528184657282348
-0.0053279559916528
-0.00537406606111749
-0.00542015967537673
-0.00546622005780644
-0.00549240806980481
-0.00551893662737271
-0.00554578177998981
-0.00557292004966941
-0.0056003284231657
-0.00562798434433252
-0.00565586570663064
-0.00568395084578017
-0.00571221853255512
-0.00574064796571699
-0.00584078236105214
-0.00593957111204713
-0.00603702402004199
-0.00613315070112101
-0.00622796059142326
-0.0063214629523405
-0.0064136668756046
-0.00650458128826648
-0.00659421495756867
-0.0066825764957132
-0.00676381741530161
-0.00684392304829019
-0.00692289916647884
-0.00700075145267564
-0.00707748550401018
-0.00715310683517227
-0.00722762088157769
-0.00730103300246176
-0.00737334848390245
-0.00744457254177408
-0.00741301625391517
-0.0073824634906277
-0.00735287755322892
-0.0073242225171402
-0.00729646321784942
-0.00726956523714419
-0.00724349488961047
-0.0072182192093908
-0.00719370593719697
-0.00716992350757205
-0.00718012226505654
-0.00719030850499376
-0.00720046632335837
-0.00721058018872675
-0.00722063493616286
-0.00723061576121481
-0.0072405082140199
-0.00725029819351607
-0.00725997194175692
-0.00726951603832872
-0.00733615581715569
-0.00740146671386319
-0.00746545977074697
-0.00752814587733223
-0.00758953577464576
-0.00764964005938974
-0.00770846918801939
-0.00776603348072589
-0.00782234312532675
-0.00787740818106512
-0.00784459389050141
-0.00781233096376381
-0.00778059354944755
-0.00774935639176084
-0.00771859481969814
-0.00768828473641618
-0.00765840260880878
-0.00762892545727613
-0.00759983084568473
-0.00757109687151404
-0.00762949303915899
-0.00768642839944682
-0.00774191820019891
-0.0077959774741645
-0.00784862104426547
-0.00789986352872168
-0.00794971934605921
-0.00799820272000373
-0.00804532768426142
-0.00809110808718929
-0.00820361589448084
-0.00831341111278812
-0.00842053498295724
-0.00852502802051478
-0.00862693003096877
-0.0087262801247885
-0.00882311673206975
-0.00891747761689154
-0.00900939989137047
-0.00909892002941888
-0.00929728192310024
-0.00949103301640063
-0.00968025357248578
-0.00986502235739331
-0.0100454166706164
-0.0102215123750605
-0.0103933839263852
-0.0105611044017445
-0.0107247455279361
-0.0108843777089732
-0.0107277529849054
-0.0105736587230317
-0.0104220333876814
-0.0102728167838925
-0.0101259500310886
-0.00998137553726803
-0.0098390369736926
-0.00969887925006828
-0.00956084849020666
-0.00942489200815801
-0.00956177251668034
-0.00969507375132326
-0.00982485756242723
-0.0099511846808963
-0.0100741147409229
-0.0101937063022432
-0.0103100168719315
-0.0104231029257451
-0.0105330199290256
-0.0106398223571688
-0.0107108547045934
-0.0107795490681681
-0.0108459436528709
-0.0109100760194319
-0.0109719830974047
-0.0110317011979625
-0.0110892660264239
-0.0111447126945132
-0.011198075732361
-0.0112493891002507
-0.0111881230833852
-0.0111271401831753
-0.0110664273587679
-0.011005971949831
-0.0109457616689883
-0.0108857845943911
-0.0108260291624239
-0.0107664841605436
-0.0107071387202472
-0.0106479823101664
-0.01049994783239
-0.0103539079615682
-0.0102098166010731
-0.0100676286946419
-0.00992730020547905
-0.00978878809576375
-0.00965205030655415
-0.00951704573808043
-0.00938373423041931
-0.00925207654454222
-0.00933093153810181
-0.00940708219814842
-0.00948057764038159
-0.0095514661177193
-0.00961979503733392
-0.00968561097733502
-0.0097489597031065
-0.0098098861833051
-0.00986843460552684
-0.00992464839164856
-0.00990217973783143
-0.00987902704932166
-0.00985520019979147
-0.00983070898129394
-0.00980556310555933
-0.00977977220525462
-0.0097533458352067
-0.00972629347359037
-0.00969862452308185
-0.00967034831197855
-0.00962573480432859
-0.00958085512732275
-0.00953571193531733
-0.00949030794139749
-0.00944464591576165
-0.0093987286841281
-0.00935255912616394
-0.00930614017393567
-0.00925947481038145
-0.00921256606780433
-0.00907123736189571
-0.00893160215489828
-0.00879362498024486
-0.00865727118651182
-0.00852250692058326
-0.00838929911114345
-0.00825761545249102
-0.00812742438866847
-0.00799869509790095
-0.00787139747733829
-0.00781859077008542
-0.00776565931668556
-0.0077126050677917
-0.00765943003606088
-0.0076061362943006
-0.00755272597364506
-0.00749920126176073
-0.00744556440108076
-0.00739181768706798
-0.00733796346650572
-0.00736224809991419
-0.00738482607628071
-0.00740573198672478
-0.0074249998260816
-0.00744266300414661
-0.00745875435668919
-0.00747330615624028
-0.00748635012265863
-0.00749791743348006
-0.00750803873405441
-0.00756228930929282
-0.00761421993790768
-0.00766387841280387
-0.00771131166006609
-0.00775656575556008
-0.00779968594119717
-0.00784071664086903
-0.00787970147605947
-0.00791668328113955
-0.00795170411835293
-0.00789038964092378
-0.00782913157102229
-0.00776793100646654
-0.00770678910344517
-0.0076457070745756
-0.00758468618699783
-0.00752372776050318
-0.00746283316569747
-0.00740200382219784
-0.00734124119686309
-0.00734702182062282
-0.00735150950163981
-0.00735473311023334
-0.00735672101258809
-0.00735750108003437
-0.00735710069814057
-0.00735554677562203
-0.0073528657530698
-0.00734908361150305
-0.00734422588074902
-0.00723448566441539
-0.007125848140114
-0.00701829493461085
-0.00691180810602243
-0.00680637013437238
-0.00670196391233613
-0.00659857273617006
-0.00649618029682127
-0.00639477067121481
-0.0062943283137147
-0.00622470322362956
-0.00615540317707839
-0.0060864259636788
-0.00601776947332319
-0.00594943169335324
-0.00588141070579103
-0.00581370468462595
-0.00574631189315637
-0.00567923068138499
-0.00561245948346697
-0.00558019200081866
-0.00554753064588205
-0.00551448811938292
-0.00548107691634511
-0.00544730932939131
-0.00541319745197891
-0.00537875318157255
-0.00534398822275468
-0.00530891409027539
-0.00527354211204291
-0.00519954454245241
-0.00512605717643793
-0.00505307506984432
-0.0049805934171725
-0.00490860754801016
-0.00483711292353608
-0.00476610513309655
-0.00469557989085272
-0.00462553303249724
-0.00455596051203927
-0.00449303518052618
-0.00443044981410776
-0.00436820323720022
-0.00430629432972698
-0.00424472202523766
-0.00418348530906776
-0.00412258321653812
-0.00406201483119348
-0.00400177928307954
-0.00394187574705767
-0.00377644249889556
-0.00361350987630406
-0.00345303374835508
-0.0032949708898605
-0.00313927896252091
-0.00298591649645481
-0.00283484287210116
-0.00268601830248759
-0.00253940381585716
-0.00239496123864639
-0.00237148727797761
-0.00234767512387635
-0.00232353765149555
-0.00229908749588185
-0.00227433705607908
-0.00224929849915382
-0.00222398376414478
-0.00219840456593748
-0.00217257239906574
-0.00214649854144168
-0.00204096817147104
-0.00193684215188493
-0.00183409862921702
-0.00173271619669683
-0.00163267388466241
-0.0015339511511695
-0.00143652787279325
-0.00134038433561856
-0.00124550122641554
-0.00115185962399622
-0.0010668846194189
-0.00098296182824529
-0.000900076509135252
-0.000818214218975574
-0.000737360806310437
-0.000657502404908359
-0.000578625427462785
-0.000500716559423812
-0.000423762752958335
-0.000347751221036118
-0.000362249329265837
-0.000375828520827139
-0.00038851350787048
-0.000400328506989962
-0.000411297248579656
-0.000421442986008133
-0.000430788504614703
-0.000439356130531051
-0.000447167739331658
-0.000454244764516547
-0.000509083888941823
-0.000562236258296371
-0.000613741916751753
-0.000663640101571757
-0.000711969258748236
-0.000758767058329531
-0.000804070409447728
-0.000847915475050743
-0.000890337686345051
-0.000931371756955083
-0.000753936950425545
-0.00057963215768183
-0.0004084009483496
-0.000240188007173284
-7.49391112679781e-05
8.73988921682443e-05
0.000246878107690721
0.000403549613002513
0.000557463479915304
0.000708668794885642
0.000767313263371931
0.000825187423936064
0.000882300643537385
0.000938662118385582
0.000994280877747992
0.00104916578767552
0.00110332555464854
0.00115676872914448
0.00120950370912886
0.00126153874347097
0.00130664459947074
0.00135119443816597
0.00139519352197423
0.00143864702825946
0.00148156005137206
0.00152393760464282
0.00156578462233179
0.0016071059615329
0.00164790640403527
0.00168819065814201
0.00159050139718474
0.00149512310382922
0.00140200388130108
0.00131109289241205
0.00122234033865698
0.00113569743972389
0.00105111641340877
0.000968550455927034
0.00088795372261386
0.000809281309005399
0.000944886927168158
0.00107797567713873
0.00120859250348266
0.00133678147881179
0.00146258582145971
0.00158604791279886
0.00170720931420642
0.00182611078368597
0.00194279229215202
0.002057293039384
0.0021135167925764
0.00216878668663914
0.00222311667066148
0.00227652044314212
0.00232901145719032
0.00238060292561864
0.00243130782592912
0.00248113890519516
0.0025301086848414
0.00257822946532342
0.00256083986386166
0.00254395101732304
0.00252754805743843
0.00251161644258721
0.00249614195140998
0.00248111067654471
0.00246650901848391
0.00245232367955061
0.0024385416579904
0.00242515024217768
0.00247683993114429
0.00252756924860901
0.0025773528646878
0.00262620518744532
0.00267414036823955
0.00272117230695562
0.00276731465713094
0.00281258083097403
0.00285698400427906
0.00290053712123836
0.00297217942265622
0.00304240389000274
0.00311123466793969
0.00317869545080625
0.0032448094916907
0.00330959961131705
0.00337308820675036
0.00343529725992445
0.00349624834599548
0.00355596264152506
0.00347551701283009
0.00339672411553192
0.00331954697474437
0.00324394938642683
0.00316989590199986
0.00309735181326525
0.00302628313762458
0.00295665660359013
0.00288843963658261
0.0028216003450097
0.00278913846432546
0.00275731534010241
0.00272611460018279
0.00269552023179279
0.00266551657435645
0.00263608831245038
0.00260722046889656
0.00257889839799052
0.0025511077788622
0.00252383460896681
0.00255040760218016
0.0025763774565974
0.00260175297110306
0.00262654280109487
0.00265075546132723
0.00267439932869541
0.0026974826449615
0.00272001351942341
0.00274199993152812
0.00276344973343016
0.00263697208992153
0.00251299482041364
0.00239146493829659
0.00227233054699088
0.00215554081809877
0.0020410459699906
0.00192879724681713
0.00181874689793973
0.00171084815776978
0.00160505522600935
0.00166387985753816
0.00172138912583875
0.00177760670226869
0.00183255581649312
0.00188625926524863
0.00193873942092994
0.00199001824000311
0.0020401172712486
0.00208905766383777
0.00213686017524608
0.00218258113178584
0.00222722434070973
0.00227080903479138
0.00231335409309197
0.00235487804794734
0.00239539909181378
0.00243493508397542
0.00247350355711592
0.00251112172375735
0.00254780648256878
0.00247423624547439
0.0024020068997067
0.00233108958190235
0.00226145603461966
0.00219307859412022
0.00212593017839374
0.00205998427542117
0.00199521493167138
0.00193159674082676
0.00186910483273324
0.00188319557371078
0.00189681707752928
0.00190997698510586
0.0019226828130755
0.00193494195616471
0.00194676168951683
0.00195814917096984
0.00196911144328765
0.00197965543634589
0.00198978796927313
0.00204088372921968
0.00209073330513282
0.0021393601679335
0.00218678734701115
0.00223303743893312
0.00227813261597921
0.00232209463450474
0.00236494484313568
0.00240670419079921
0.00244739323459292
0.00242010915750506
0.00239316665873544
0.00236655770972989
0.00234027446832234
0.00231430927488026
0.00228865464852658
0.00226330328343675
0.00223824804520941
0.00221348196730909
0.00218899824757968
0.00224605979143045
0.00230172455329812
0.00235601954556195
0.00240897126588559
0.00246060570737924
0.00251094836855822
0.00256002426310197
0.00260785792941766
0.0026544734400121
0.00269989441067607
0.00262816432368615
0.00255766316284244
0.00248836564526635
0.00242024701650053
0.00235328303980707
0.00228744998567954
0.00222272462156484
0.00215908420179022
0.00209650645769193
0.00203496958794104
0.00201795984357492
0.00200105683501026
0.001984257956211
0.00196756067522462
0.00195096253256568
0.00193446113963178
0.00191805417715115
0.00190173939366132
0.00188551460401819
0.001869377687935
0.00203305531531607
0.00219313234849534
0.00234968058875792
0.00250277042420033
0.00265247085785761
0.00279884953526789
0.00294197277148587
0.00308190557755593
0.00321871168645601
0.00335245357852263
0.00342584966330794
0.00349747835417348
0.00356737499558367
0.00363557424587917
0.00370211009086454
0.00376701585712417
0.00383032422507212
0.00389206724174116
0.00395227633331616
0.00401098231741716
0.00381486849689073
0.00362250500597843
0.00343381696981083
0.00324873102731064
0.00306717530078739
0.00288907936614042
0.0027143742236583
0.00254299226940246
0.00237486726716362
0.00220993432097935
0.00211549050621884
0.00202273198420774
0.00193162535564702
0.00184213790507105
0.00175423758704409
0.00166789301263323
0.00158307343615228
0.00149974874217118
0.00141788943278549
0.00133746661514103
0.00138059655547425
0.00142260302024542
0.00146350897038125
0.00150333692369566
0.00154210896362752
0.00157984674780412
0.0016165715164336
0.00165230410053011
0.0016870649299747
0.00172087404141551
0.0017387923623877
0.00175610454170275
0.00177282334518705
0.00178896129804426
0.00180453068954744
0.0018195435776378
0.00183401179343184
0.00184794694563882
0.00186136042489038
0.00187426340798383
0.00187808198146125
0.00188158777638643
0.00188478783064658
0.00188768905477508
0.00189029823438271
0.00189262203254065
0.00189466699211633
0.00189643953806291
0.00189794597966354
0.00189919251273109
0.00181874821072402
0.00173972550835979
0.00166209686347398
0.00158583529600461
0.00151091437663978
0.00143730821569289
0.00136499145220078
0.00129393924324036
0.0012241272534595
0.0011555316448177
0.00115057989508703
0.00114551806828604
0.00114034937985558
0.00113507699187714
0.00112970401403379
0.0011242335045524
0.00111866847112727
0.001113011871826
0.00110726661597758
0.00110143556504317
0.00111510943924144
0.001128301551492
0.00114102266084043
0.00115328332130097
0.00116509388585525
0.00117646451037152
0.00118740515744586
0.00119792560016717
0.00120803542580712
0.00121774403943696
0.00133862017860556
0.00145682642761078
0.00157241743429668
0.00168544676407979
0.00179596692149882
0.00190402937133374
0.00200968455930301
0.00211298193234703
0.00221396995850669
0.0023126961464044
0.00227646504028558
0.00224078550550737
0.00220564782675094
0.00217104249092285
0.00213696018301757
0.00210339178206306
0.00207032835714792
0.00203776116352844
0.00200568163881391
0.00197408139922869
0.00191363481355099
0.0018542522701532
0.00179591387166095
0.00173860012529315
0.00168229193468167
0.00162697059185519
0.00157261776938372
0.00151921551268073
0.00146674623245957
0.00141519269734127
0.00141132337194706
0.0014073772801554
0.00140335741557242
0.00139926671829133
0.00139510807587796
0.00139088432433687
0.00138659824905866
0.00138225258574865
0.00137785002133735
0.00137339319487321
0.001309894117743
0.00124755521590216
0.00118635478847067
0.00112627157338627
0.00106728473854808
0.00100937387313758
0.000952518979113686
0.000896700462878134
0.000841899127108174
0.000788096162752811
0.000652455497475861
0.000519474470284222
0.000389101413756457
0.00026128569681268
0.000135977703912459
1.31288146692177e-05
-0.000107308616127223
-0.000225381278088221
-0.000341134924411939
-0.00045461439068486
-0.000429529915041814
-0.000405053074508835
-0.00038117012868034
-0.000357867608015731
-0.000335132308495241
-0.000312951286382268
-0.000291311853090193
-0.000270201570151496
-0.000249608244287149
-0.000229519922574337
-0.000310491825693743
-0.000389883919887764
-0.000467726203836512
-0.000544048074262406
-0.000618878338037831
-0.000692245224050355
-0.00076417639483035
-0.000834698957945606
-0.000903839477167822
-0.000971623983415325
-0.000963177975846822
-0.000954961901940295
-0.000946969529075777
-0.000939194747046451
-0.000931631565676565
-0.000924274112486687
-0.000917116630405437
-0.000910153475526476
-0.000903379114910346
-0.000896788124429722
-0.00092834348546002
-0.000959293341101213
-0.000989648158026116
-0.00101941819245249
-0.0010486134944149
-0.00107724391195086
-0.00110531909520296
-0.00113284850043863
-0.00115984139398924
-0.0011863068561101
-0.00135671464651384
-0.00152365119351435
-0.00168718430801994
-0.00184738044599875
-0.0020043047356355
-0.00215802100394484
-0.00230859180285217
-0.00245607843475244
-0.00260054097755751
-0.00274203830924224
-0.0027524704292019
-0.00276267880653917
-0.0027726662838742
-0.00278243564723499
-0.00279198962724585
-0.00280133090029177
-0.0028104620896592
-0.00281938576665379
-0.00282810445169547
-0.00283662061539149
-0.00270672602516304
-0.00257946701040306
-0.00245478919622414
-0.00233263929434289
-0.00221296508140368
-0.00209571537773557
-0.00198084002653402
-0.00186828987345863
-0.00175801674663885
-0.00164997343707924
-0.0014592558868973
-0.00127241612214723
-0.00108937489502562
-0.000910054541291191
-0.00073437894864842
-0.000562273525763225
-0.000393665171898248
-0.00022848224715519
-6.66545433122028e-05
9.18867447557269e-05
0.000205614638346507
0.00031704230868824
0.000426217452920439
0.000533186814579322
0.00063799620261719
0.000740690510041738
0.000841313732182724
0.000939908984593377
0.00103651852059413
0.00113118374846549
0.00100864527742508
0.000888656468803103
0.000771167966586634
0.000656131399044093
0.00054349935899159
0.000433225384454044
0.000325263939713532
0.000219570396736686
0.000116101016973931
1.48129335228387e-05
-4.45774321767927e-05
-0.00010268473284546
-0.000159533012641161
-0.000215145837656612
-0.000269546305526873
-0.000322757054844537
-0.000374800274386466
-0.00042569771215573
-0.000475470684242524
-0.000524140083507656
-0.000588653899342472
-0.000651757680427285
-0.000713478044991958
-0.000773841082382128
-0.000832872363680804
-0.000890596952117418
-0.000947039413268399
-0.00100222382505354
-0.00105617378753223
-0.00110891243250363
-0.00108666220466787
-0.0010647584508872
-0.00104319267660869
-0.00102195656016898
-0.00100104194937929
-0.000980440858178577
-0.000960145463353362
-0.000940148101323065
-0.000920441264989442
-0.000901017600648762
-0.000939809961031309
-0.000977683470351211
-0.00101465498764871
-0.00105074103891737
-0.00108595782380529
-0.00112032122218197
-0.0011538468005737
-0.00118654981847004
-0.0012184452345039
-0.001249547712508
-0.00125601178397747
-0.00126220050806237
-0.0012681179105962
-0.00127376794112816
-0.00127915447448746
-0.00128428131231596
-0.0012891521845701
-0.00129377075099253
-0.00129814060255415
-0.00130226526286715
-0.0012976836621621
-0.00129303724260321
-0.00128832586126723
-0.00128354938259384
-0.0012787076782751
-0.00127380062714697
-0.00126882811508275
-0.00126379003488852
-0.00125868628620046
-0.00125351677538408
-0.00123362738256055
-0.00121397246594531
-0.00119454593954394
-0.00117534184376418
-0.0011563543429229
-0.00113757772280277
-0.00111900638825766
-0.00110063486086571
-0.00108245777662911
-0.00106446988371987
-0.0010565131860846
-0.0010485336385981
-0.00104053035274841
-0.00103250246294002
-0.00102444912606855
-0.00101636952110394
-0.00100826284868161
-0.00100012833070179
-0.000991965209936415
-0.00098377274964402
-0.000912848695527317
-0.00084317926191167
-0.000774738047356074
-0.000707499183142356
-0.00064143732265282
-0.000576527630960091
-0.00051274577462507
-0.000450067911698699
-0.000388470681923555
-0.000327931197131207
-0.000297114037180612
-0.000266722144723576
-0.000236745761268608
-0.000207175328855603
-0.00017800148607517
-0.000149215064167469
-0.00012080708319887
-9.27687483148984e-05
-6.50914460679713e-05
-3.77667408183304e-05
-6.44240831542891e-05
-9.03181043135837e-05
-0.000115462886595227
-0.0001398722369686
-0.000163559692607629
-0.000186538526313968
-0.000208821751831638
-0.000230422129055116
-0.000251352169133086
-0.000271624139469914
-0.000231473138896584
-0.000191913311128791
-0.000152931697281784
-0.000114515603492867
-7.66525956473651e-05
-3.93304942098693e-05
-2.53736915859146e-06
3.37384649789517e-05
6.95084539913669e-05
0.000104783808751453
1.16422170968785e-05
-7.93496569661977e-05
-0.000168233765535992
-0.000255051229349646
-0.000339842354433501
-0.00042264664841993
-0.00050350283653778
-0.000582448877282772
-0.000659521977774197
-0.000734758608804366
-0.000642296024443342
-0.000551468659993268
-0.00046224280309201
-0.000374585421475611
-0.00028846414939928
-0.000203847274329841
-0.000120703723904097
-3.90030531479867e-05
4.12845680489239e-05
0.000120188367208508
0.000181417505493691
0.000241654064078604
0.000300918838715825
0.000359232202967864
0.000416614116629747
0.000473084133983383
0.000528661411887052
0.000583364717703142
0.000637212437067573
0.000690222581504005
0.000734338126525363
0.000777816556724201
0.00082067149275386
0.000862916276275457
0.000904563975518284
0.000945627390729135
0.000986119059512842
0.00102605126206612
0.00106543602630685
0.00110428513290106
0.00104964752815557
0.000996402826272129
0.000944523956511671
0.000893984381634484
0.000844758087213522
0.000796819571161584
0.000750143833468145
0.00070470636614161
0.000660483143352861
0.000617450611776144
0.000380996446163928
0.000149676299540273
-7.661185209693e-05
-0.00029796800274928
-0.000514490157030405
-0.000726274369966137
-0.00093341478599836
-0.00113600367720871
-0.00133413148077747
-0.00152788683569322
-0.00148840908425918
-0.00144942430612113
-0.00141092203070354
-0.00137289200460976
-0.00133532418729211
-0.00129820874680835
-0.00126153605566314
-0.00122529668673227
-0.00118948140926867
-0.0011540811849879
-0.00104405429474776
-0.000935963107532333
-0.000829768356761408
-0.00072543156815902
-0.00062291504392122
-0.000522181847200369
-0.000423195786899879
-0.000325921402772925
-0.000230323950819253
-0.000136369388974008
-7.11077766708251e-05
-6.86781379625844e-06
5.63714077047198e-05
0.000118630370280577
0.000179929139271846
0.000240287371239598
0.000299724322127315
0.000358258855259495
0.00041590944918018
0.000472694205334592
0.00061022126924858
0.000745245003838569
0.000877815897090123
0.00100798342065232
0.00113579605014879
0.00126130128508238
0.00138454566834148
0.001505574805316
0.00162443338263075
0.00174116518650404
0.00169040518354723
0.00164099419166509
0.00159290554213755
0.00154611309083089
0.00150059120768981
0.00145631476643931
0.00141325913449214
0.00137140016305787
0.0013307141774493
0.0012911779675823
0.00125312333243417
0.00121616614130493
0.00118028466825479
0.00114545761289963
0.0011116640918794
0.00107888363049652
0.00104709615452094
0.0010162819821585
0.000986421816179216
0.000957496736202313
0.000986350038497741
0.00101493602584051
0.00104326019175944
0.00107132791141752
0.00109914444395077
0.00112671493475933
0.00115404441775187
0.00118113781754389
0.0012079999516112
0.00123463553239907
0.00126321417971017
0.00129153100932511
0.00131959131904005
0.00134740029189446
0.00137496299842622
0.00140228439888035
0.00142936934537197
0.00145622258400452
0.001482848756944
0.00150925240445003
0.00148561723163645
0.00146278963484483
0.00144075342093645
0.00141949271074822
0.00139899193275675
0.0013792358168672
0.00136020938832423
0.00134189796174242
0.00132428713525384
0.0013073627847703
0.00133538648191397
0.00136316157727634
0.0013906929112206
0.00141798521729691
0.00144504312429735
0.00147187115826697
0.00149847374447146
0.00152485520932243
0.00155101978226078
0.0015769715975992
0.00154981617084464
0.0015235403899505
0.00149812641235967
0.00147355674074928
0.00144981421601121
0.00142688201036887
0.00140474362062749
0.00138338286155508
0.00136278385939126
0.00134293104548137
0.00132993949028102
0.00131753820529293
0.00130571501522926
0.00129445797541936
0.00128375536703566
0.00127359569240951
0.00126396767043509
0.00125486023205922
0.00124626251585567
0.00123816386368144
0.00135162545107348
0.00146308342595848
0.00157257738560597
0.00168014612206121
0.0017858276380234
0.00188965916239886
0.00199167716553567
0.0020919173741458
0.00219041478592087
0.00228720368384732
0.0022831364026001
0.00227946028812864
0.00227616687219465
0.00227324783880055
0.00227069502083632
0.00226850039678398
0.00226665608747801
0.00226515435292076
0.002263987589151
0.00226314832516472
0.00233079827515643
0.00239736371275946
0.00246286551489195
0.00252732412110894
0.00259075954193348
0.00265319136700876
0.00271463877307481
0.00277512053177288
0.00283465501728055
0.00289326021378082
0.00279970230442116
0.00270835056835801
0.00261915981060844
0.00253208571364848
0.0024470848193142
0.00236411451104945
0.00228313299649312
0.00220409929039888
0.00212697319788013
0.00205171529797371
0.00212682160053873
0.00220067456944311
0.00227329794777019
0.00234471497291356
0.00241494838597167
0.00248402044093612
0.002551952913677
0.00261876711072919
0.00268448387788325
0.00274912360858422
0.00267212540139331
0.0025969715098375
0.00252362334417573
0.00245204304582269
0.00238219347180548
0.00231403817950881
0.00224754141170282
0.00218266808184712
0.00211938375966553
0.00205765465698548
0.00205587776976503
0.00205439258588716
0.00205319113263557
0.00205226554658227
0.0020516080702415
0.00205121104876452
0.00205106692667434
0.00205116824463885
0.00205150763628173
0.00205207782502946
0.00218749567811385
0.00232037025606375
0.0024507497639877
0.00257868138157528
0.0027042112821681
0.00282738465141983
0.0029482457055533
0.00306683770922262
0.00318320299298748
0.00329738297040751
0.00321635133140856
0.00313717237405155
0.00305980565220823
0.00298421144923653
0.00291035076164875
0.00283818528307414
0.00276767738850994
0.00269879011885502
0.00263148716572
0.00256573285650833
0.00257477626697517
0.00258379650989993
0.00259278979871028
0.00260175232514505
0.00261068025761578
0.00261956973956723
0.00262841688783705
0.00263721779101447
0.00264596850779788
0.00265466506535159
0.00258169974824089
0.00251034509072313
0.00244056353676747
0.00237231816079302
0.00230557265265124
0.00224029130287521
0.0021764389881909
0.00211398115728488
0.00205288381682398
0.00199311351772182
0.00197823228129373
0.00196371907634169
0.00194955989177167
0.00193574085101418
0.00192224820660061
0.00190906833481738
0.00189618773043678
0.00188359300152351
0.00187127086431575
0.00185920813817996
0.00194421812705255
0.0020274765266786
0.00210901016023825
0.00218884514129564
0.00226700688497402
0.0023435201188828
0.00241840889380211
0.00249169659413055
0.00256340594810189
0.00263355903777616
0.00275025040641654
0.00286444228283524
0.00297617459080426
0.00308548625188374
0.00319241520224258
0.00329699840912782
0.00339927188699105
0.00349927071328001
0.00359702904390343
0.00369258012837702
0.00357848194113461
0.003466493545131
0.00335656044010178
0.00324862897674369
0.00314264633638775
0.00303856051107869
0.00293632028405433
0.00283587521061847
0.00273717559940156
0.00264017249400296
0.00261800216555013
0.00259593229029768
0.00257394603500258
0.00255202663207621
0.00253015737504367
0.00250832161411295
0.00248650275185422
0.00246468423898917
0.00244284957029062
0.00242098228059244
0.00237734038197657
0.00233407840800283
0.00229117107773152
0.00224859331342682
0.00220632023356329
0.00216432714601587
0.00212258954143254
0.00208108308678859
0.00203978361912188
0.00199866713944816
0.00184617924069217
0.00169611316288718
0.00154839960775497
0.0014029703321968
0.00125975812482641
0.00111869678304517
0.00097972109065196
0.00084276679597994
0.000707770590553204
0.000574670088255917
0.000613515617259734
0.000650647492903416
0.000686075766231724
0.000719809938616735
0.000751858971260786
0.000782231294615243
0.000810934817720333
0.000837976937470997
0.000863364547813821
0.000887104048879921
0.000991818126000853
0.00109320181561475
0.00119129398497681
0.0012861323666472
0.00137775358091078
0.00146619315788967
0.00155148555935863
0.00163366420027261
0.00171276147001585
0.0017888087533819
0.00177422915452676
0.00175845534618844
0.0017414798809545
0.00172329510597839
0.0017038931683902
0.00168326602077645
0.00166140542673074
0.00163830296647768
0.00161395004257185
0.00158833788567383
0.00163580692601292
0.00168047454995106
0.00172236201047797
0.00176148980346674
0.00179787768604271
0.00183154469479566
0.00186250916384139
0.00189078874273899
0.00191640041426952
0.00193936051208174
0.00195052127656856
0.00195924910698929
0.0019655547348239
0.00196944838685736
0.00197093980073897
0.00197003824046921
0.00196675251181823
0.00196109097767914
0.00195306157336017
0.00194267182181848
0.0018654096675555
0.00178712367061381
0.00170779373813888
0.00162739995393633
0.00154592258288855
0.0014633420755411
0.00137963907285702
0.00129479441113646
0.00120878912710001
0.0011216044631328
0.00103827481962164
0.000953625334941079
0.000867639974529965
0.000780302890631328
0.000691598429131566
0.000601511136528367
0.000510025767024577
0.000417127289745274
0.000322800896075294
0.000227032007114173
9.98451356709331e-05
-2.81984696541534e-05
-0.000157124944613929
-0.000286959918847919
-0.000417728512796898
-0.000549455334421829
-0.000682164475732607
-0.000815879509132454
-0.000950623483583671
-0.0010864189206007
-0.00117138336477846
-0.0012585067498847
-0.00134778869510126
-0.00143922869977075
-0.00153282613011179
-0.00162858020596785
-0.00172648998759293
-0.00182655436247714
-0.00192877203221517
-0.0020331414994211
-0.00214118406912573
-0.00225134357089374
-0.00236361845723318
-0.00247800691738659
-0.00259450686478082
-0.00271311592454077
-0.00283383142107096
-0.00295665036570974
-0.00308156944446
-0.00320858500580164
-0.00336941942554655
-0.00353169157726112
-0.00369540974067202
-0.0038605815502114
-0.00402721398850608
-0.00419531337987342
-0.00436488538383115
-0.00453593498862854
-0.00470846650480615
-0.00488248355879134
-0.00505353563860961
-0.00522616972647353
-0.00540038553144336
-0.00557618208984151
-0.00575355775840858
-0.00593251020755435
-0.00611303641471071
-0.00629513265779361
-0.00647879450878117
-0.00666401682741531
-0.0068758043865538
-0.00708862725681038
-0.00730248838562346
-0.00751738977946754
-0.00773333250237502
-0.00795031667454164
-0.00816834147102405
-0.00838740512053805
-0.00860750490436587
-0.00882863715538085
-0.00888256530327261
-0.00894096446928604
-0.00900375911770063
-0.00907087414012058
-0.00914223482764439
-0.00921776684375102
-0.00929739619789941
-0.00938104921983788
-0.00946865253462026
-0.00956013303832567
-0.00983214536445751
-0.0101042665000354
-0.0103764965197117
-0.0106488342311179
-0.0109212771830131
-0.011193821673539
-0.0114664627585906
-0.0117391942603109
-0.0120120087757183
-0.0122848976854739
-0.0125667013535715
-0.012848377136302
-0.0131299164502602
-0.0134113094598048
-0.0136925450880915
-0.0139736110282617
-0.0142544937547921
-0.0145351785350144
-0.0148156494408087
-0.0150958893604793
-0.0152611008372604
-0.015428396560713
-0.0155977088522781
-0.0157689698396132
-0.0159421114506494
-0.0161170654082361
-0.0162937632253704
-0.0164721362010068
-0.0166521154164443
-0.0168336317322857
-0.0171089522579685
-0.0173837780479049
-0.0176580771699735
-0.0179318167083365
-0.0182049627783227
-0.0184774805415536
-0.0187493342213093
-0.0190204871181374
-0.0192909016257026
-0.0195605392468768
-0.019754081263248
-0.019948310009193
-0.0201431535300374
-0.0203385396637987
-0.0205343960461175
-0.0207306501156606
-0.0209272291199891
-0.0211240601218807
-0.0213210700060963
-0.021518185486582
-0.0215768554702973
-0.0216383227707474
-0.0217024568250114
-0.0217691280668093
-0.0218382079130168
-0.0219095687509967
-0.021983083926723
-0.0220586277336759
-0.0221360754024805
-0.0222153030912693
-0.0224300881357442
-0.0226436633255914
-0.0228559624843596
-0.0230669192342268
-0.0232764670115181
-0.0234845390823456
-0.0236910685583501
-0.0238959884125246
-0.0240992314950942
-0.0243007305494325
-0.0246966175442156
-0.0250866036795926
-0.0254707019665425
-0.025848923765261
-0.0262212788330014
-0.0265877753711407
-0.0269484200714511
-0.0273032181615555
-0.0276521734495448
-0.0279952883677298
-0.0282314400199135
-0.028463825239164
-0.0286924010968016
-0.0289171242826636
-0.0291379511275252
-0.0293548376247965
-0.02956773945145
-0.0297766119881287
-0.0299814103383864
-0.0301820893470067
-0.0303704892957556
-0.0305548452270239
-0.0307351079801698
-0.0309112282651934
-0.0310831566742498
-0.031250843691904
-0.0314142397040552
-0.0315732950054593
-0.0317279598057747
-0.031878184234052
-0.0320428236376914
-0.0322025351391047
-0.032357276391774
-0.0325070048144504
-0.0326516775897106
-0.0327912516603742
-0.0329256837236905
-0.0330549302231954
-0.0331789473381413
-0.0332976909703972
-0.033404869108369
-0.0335068127449931
-0.0336034742813846
-0.0336948058126693
-0.0337807590996229
-0.0338612855371523
-0.0339363361195071
-0.0340058614021035
-0.0340698114598494
-0.0341281358418513
-0.0340927097003098
-0.0340533607060488
-0.0340100003879659
-0.0339625402510885
-0.0339108916970431
-0.0338549659405136
-0.0337946739215751
-0.033729926213791
-0.0336606329279672
-0.0335867036114576
-0.033528023666973
-0.033464115154349
-0.0333948934760571
-0.0333202728583011
-0.0332401662299852
-0.033154485096665
-0.0330631394094254
-0.0329660374286373
-0.0328630855825578
-0.0327541883207467
-0.0326115495504062
-0.0324633355289657
-0.0323094324748856
-0.0321497242166135
-0.0319840920156099
-0.031812414384409
-0.0316345668997901
-0.0314504220111539
-0.0312598488442156
-0.0310627130001506
-0.0309189374112316
-0.0307670877045907
-0.030607042300272
-0.0304386747562495
-0.0302618535574614
-0.0300764419013849
-0.0298822974804607
-0.0296792722617017
-0.0294672122638508
-0.0292459573324814
-0.0289170216080856
-0.0285805667477652
-0.0282363723776933
-0.0278842118451548
-0.0275238519742294
-0.0271550528227546
-0.0267775674411763
-0.0263911416339292
-0.0259955137240247
-0.025590414321552
-0.0252634203955723
-0.024924591154543
-0.0245736687743633
-0.0242103861267194
-0.0238344665933345
-0.0234456238887791
-0.023043561892778
-0.0226279744929783
-0.0221985454391681
-0.0217549482099632
-0.0212509913920913
-0.0207331220893239
-0.0202009634950186
-0.0196541285195719
-0.0190922197279345
-0.0185148292962706
-0.0179215389888943
-0.0173119201566272
-0.0166855337577241
-0.0160419304025124
-0.0155217592489907
-0.0149805489070329
-0.0144178773566034
-0.0138333115121678
-0.0132264074260337
-0.0125967105216508
-0.0119437558579302
-0.0112670684256087
-0.0105661634766545
-0.00984054688766549
-0.00892862038738901
-0.00799426993364612
-0.00703690971967477
-0.00605594769406738
-0.00505078608028295
-0.00402082193527905
-0.00296544774778636
-0.00188405207666928
-0.000776020229731441
0.000359265016765099
0.00148979618155431
0.00264948854402138
0.00383894881091872
0.00505878320064517
0.00630959651423899
0.00759199116629034
0.00890656617625564
0.010253916120781
0.0116346300477672
0.0130492903530411
0.0144451246002204
0.0158771389940854
0.0173458669899436
0.0188518309827993
0.0203955410059871
0.0219774934006245
0.0235981694577079
0.0252580340348181
0.0269575341495405
0.0286970975518462
0.0305384138059905
0.0324193289595279
0.0343402293617735
0.0363014757211303
0.0383034016207054
0.0403463120289444
0.0424304818084306
0.0445561542261039
0.046723539468263
0.0489328131638079
0.0511406914049398
0.0533915900171482
0.0556855544178246
0.0580225900703097
0.060402661096019
0.0628256889173331
0.0652915509351654
0.06780007924515
0.0703510593964074
0.072944229196852
0.075480517388539
0.0780603476704326
0.0806832674659784
0.0833487730319665
0.0860563085391583
0.0888052652229935
0.0915949806080288
0.0944247378096663
0.0972937649166239
0.100201234457478
0.103193055658515
0.106220536731267
0.109282700408127
0.112378512246594
0.115506880568737
0.118666656501335
0.121856634118862
0.125075550691231
0.128322087038018
0.131594867990627
0.135085772329522
0.138596042550584
0.142124218697079
0.145668786189146
0.149228176870569
0.15280077016628
0.156384894350199
0.159978827922733
0.16358080109698
0.167188997392364
0.170679130370273
0.174174230025454
0.177672300181338
0.181171306384048
0.184669177983911
0.188163810311055
0.191653066941789
0.195134782052177
0.198606762854941
0.202066792115581
0.205497153654357
0.208911383552801
0.212307200706977
0.215682310458128
0.219034407432028
0.222361178427925
0.225660305351402
0.22892946818533
0.232166347992914
0.23536862994671
0.238584283952152
0.241759704301386
0.244892627461325
0.247980805845611
0.251022010886131
0.254014036091615
0.256954700086702
0.25984184962488
0.262673362568703
0.265447150830754
0.268213558810288
0.270917105510096
0.27355584364508
0.276127870793827
0.278631332056504
0.281064422635976
0.283425390336434
0.285712537973975
0.287924225693792
0.290058873188845
0.291968129845827
0.293800382696916
0.29555418209395
0.297228146934787
0.298820966296947
0.300331400947761
0.30175828472777
0.303100525804434
0.304357107793525
0.305527090745906
0.306740056677118
0.30786210214188
0.30889257455966
0.309830899283078
0.31067657991031
0.311429198455757
0.312088415379093
0.31265396947311
0.313125677611156
0.31350343435526
0.313622184833911
0.313650386877869
0.313588096690723
0.313435446589913
0.313192643919323
0.312859969836482
0.312437777977643
0.311926493004286
0.31132660903482
0.310638687965559
0.309901803134313
0.309077412958868
0.308166287325831
0.307169255850123
0.30608720571704
0.304921079442216
0.303671872554906
0.302340631210121
0.300928449735302
0.299436468117293
0.297833795641048
0.296154387166922
0.294399490914692
0.292570390495574
0.290668402184689
0.288694872169923
0.286651173783258
0.284538704720653
0.282358884256483
0.28011315045854
0.277858719673177
0.275540153848851
0.273158953694698
0.270716627239445
0.268214687145681
0.265654648058783
0.263038023995819
0.260366325779645
0.257641058523219
0.254863719169043
0.251972891748384
0.249034241555138
0.246049201071843
0.243019185926808
0.239945592766218
0.236829797207198
0.233673151875462
0.230476984530912
0.227242596284384
0.223971259908491
0.220706901210506
0.217407173648569
0.214073273337839
0.210706361941743
0.207307565497222
0.203877973347151
0.200418637181341
0.196930570187357
0.193414746312104
0.189872099634963
0.186323798307352
0.18275000516355
0.179151540359148
0.17552918263158
0.171883669238039
0.168215696004868
0.164525917487689
0.160814947241319
0.157083358198334
0.153331683154925
0.149538783108949
0.14572718817475
0.14189730582844
0.138049506569748
0.134184124913946
0.130301460479081
0.126401779165905
0.122485314427663
0.118552268626797
0.114602814475416
0.110781335229452
0.106940753392574
0.103081221331549
0.0992028671127001
0.0953057963326201
0.0913900940102918
0.0874558265365143
0.0835030436764077
0.0795317806206558
0.075542060081037
0.0713901788779337
0.0672228029044487
0.063039871422194
0.0588413211239447
0.0546270883570189
0.050397111362829
0.0461513325275794
0.0418897006390351
0.0376121731442437
0.0333187184030554
0.0290481190112748
0.0247607753760111
0.0204567179153991
0.0161359965107975
0.0117986826677925
0.00744487164173824
0.00307468452270413
-0.00131172972526375
-0.00571419227560394
-0.010132492506399
-0.0144834892646502
-0.0188514990250598
-0.0232361708032954
-0.027637115421092
-0.0320539039099394
-0.0364860659986337
-0.0409330886889036
-0.0453944149231766
-0.0498694423483765
-0.0543575221794792
-0.0589902195948425
-0.0636318171817561
-0.0682815753516412
-0.0729387035198629
-0.0776023595386904
-0.0822716492476431
-0.0869456261434411
-0.0916232911715172
-0.0963035926407924
-0.100985426263142
-0.105649922833266
-0.110313949080733
-0.114976237158852
-0.119635468192536
-0.124290272949857
-0.128939232640901
-0.13358087984331
-0.138213699553581
-0.142836130362875
-0.147446565755808
-0.151988154107744
-0.156515536113636
-0.161026956284328
-0.165520620859587
-0.169994699678806
-0.174447328159202
-0.17887660937787
-0.183280616253755
-0.187657393825367
-0.192004961619775
-0.196333950496855
-0.200629443017082
-0.204889402411323
-0.209111776586591
-0.21329450087826
-0.217435500861895
-0.221532695218725
-0.225583998648635
-0.229587324824391
-0.233540589380697
-0.237431344120825
-0.241268099047193
-0.245048789610702
-0.248771365481945
-0.252433793613265
-0.256034061295489
-0.259570179202501
-0.263040184416853
-0.266442143429638
-0.269774155107901
-0.273076254567393
-0.276303854257793
-0.279455184744925
-0.282528520040751
-0.285522180317648
-0.288434534551893
-0.291264003090515
-0.294009060135869
-0.296668236142495
-0.299240120121058
-0.301845496365864
-0.304358439251682
-0.306777776385782
-0.309102401121896
-0.311331274350241
-0.313463426168419
-0.315497957429954
-0.317434041167477
-0.319270923887952
-0.321007926737621
-0.322675265801522
-0.324240963410833
-0.325704582932968
-0.327065765444843
-0.328324230228726
-0.329479775130983
-0.330532276783798
-0.331481690690279
-0.332328051173689
-0.333071471191885
-0.333504654235852
-0.333839610699721
-0.334076601882705
-0.334215967360922
-0.334258124121004
-0.33420356557254
-0.334052860442508
-0.333806651555086
-0.333465654500515
-0.333030656196864
-0.332487442160353
-0.331852317388309
-0.331126266961676
-0.330310340673891
-0.329405651120097
-0.328413371706654
-0.327334734586054
-0.326171028522432
-0.324923596692964
-0.323593834430533
-0.322249601455746
-0.320824614400788
-0.319320438263207
-0.317738680144626
-0.316080986792739
-0.314349042117299
-0.312544564685569
-0.310669305202647
-0.308725043982044
-0.306713588411764
-0.304605508139867
-0.302434560263602
-0.300202605397806
-0.297911521409733
-0.29556320093328
-0.293159548908212
-0.290702480148803
-0.28819391694613
-0.285635786708078
-0.283030019640959
-0.28038751948343
-0.277701058315712
-0.2749725649807
-0.272203962259737
-0.26939716481525
-0.266554077194158
-0.263676591894517
-0.260766587497686
-0.257825926868036
-0.254856455422051
-0.251903035256482
-0.248923553968584
-0.245919812618602
-0.24289358826588
-0.239846632612063
-0.236780670720163
-0.233697399809844
-0.23059848812916
-0.227485573902731
-0.224360264356218
-0.221152917132192
-0.217937752473072
-0.214716250293397
-0.211489856943614
-0.208259984595897
-0.205028010702044
-0.201795277522188
-0.198563091722949
-0.195332724043532
-0.192105409028159
-0.188904319551103
-0.185708192013551
-0.182518160421965
-0.179335321965444
-0.176160737056119
-0.172995429424351
-0.169840386266595
-0.166696558443731
-0.163564860727644
-0.16044617209381
-0.15750259106938
-0.154570365368324
-0.151650334914596
-0.148743304099205
-0.145850042294865
-0.142971284402353
-0.140107731426315
-0.137260051078291
-0.134428878404722
-0.131614816437772
-0.128676921873947
-0.125760151782109
-0.122864959194737
-0.119991769078489
-0.11714097904453
-0.11431296006991
-0.11150805722814
-0.108726590427167
-0.105968855152994
-0.103235123217275
-0.10064714024041
-0.0980811455352956
-0.0955373942372634
-0.0930161198107435
-0.0905175348137796
-0.0880418316574608
-0.0855891833590722
-0.0831597442878428
-0.0807536509022328
-0.0783710224777746
-0.0759006751198234
-0.0734562639472957
-0.0710378152896712
-0.0686453420047702
-0.0662788441286651
-0.0639383095119777
-0.0616237144420184
-0.0593350242502867
-0.0570721939049041
-0.0548351685876095
-0.0525677510768265
-0.0503271525504288
-0.0481132691049734
-0.0459259896585548
-0.0437651964376626
-0.0416307654476162
-0.0395225669265364
-0.0374404657828489
-0.0353843220163572
-0.0333539911229528
-0.0314872390518426
-0.0296431716404044
-0.0278216897199585
-0.0260226899457201
-0.0242460651444183
-0.0224917046461396
-0.0207594946006601
-0.0190493182785534
-0.0173610563573763
-0.0156945871932505
-0.014127451078302
-0.0125802663815149
-0.0110529378456178
-0.00954536820270506
-0.00805745839071677
-0.0065891077572004
-0.00514021425074267
-0.00371067460046181
-0.0023003844839535
-0.000909238684085099
0.000628888395693935
0.0021446803221619
0.00363831227265629
0.00510995843553064
0.00655979193042531
0.00798798473680476
0.00939470763039398
0.0107801301271518
0.0121444204344245
0.0134877454089292
0.0148113311705224
0.0161142593817433
0.0173966930936429
0.0186587938914119
0.0199007218816716
0.0211226356846399
0.0223246924308736
0.023507047762299
0.0246698558372507
0.0258132693392468
0.0269169443168026
0.0280019458646423
0.0290684139196283
0.0301164871790764
0.0311463031210986
0.0321579980273096
0.0331517070076838
0.034127564027363
0.0350857019352196
0.0360262524939905
0.0369930281273483
0.0379415813364037
0.0388720587402424
0.0397846056467584
0.0406793660953017
0.0415564828998089
0.0424160976922886
0.04325835096654
0.0440833821219904
0.0448913295075439
0.0456721530708371
0.0464363752206071
0.0471841272405178
0.047915539620647
0.0486307420983137
0.0493298636984264
0.0500130327732843
0.0506803770417674
0.0513320236278555
0.0519680990984234
0.0525651627757057
0.0531473900620171
0.0537148964032266
0.0542677970241633
0.054806206958253
0.0553302410762646
0.0558400141141379
0.0563356406998648
0.0568172353794033
0.0572849126416013
0.0576878710199672
0.0580781846519432
0.0584559471056991
0.058821252398936
0.0591741950103107
0.059514869889969
0.0598433724691806
0.0601597986690708
0.060464244908445
0.0607568081107051
0.0610373984569597
0.0613063049884761
0.0615636260980411
0.0618094607031711
0.0620439082484826
0.0622670687071753
0.0624790425816361
0.0626799309031725
0.0628698352308857
0.0630488576496938
0.0632334034444948
0.0634069388627859
0.0635695742350911
0.0637214202680276
0.0638625880409415
0.0639931890017226
0.0641133349618129
0.0642231380904286
0.0643227109080104
0.0644121662789227
0.0646088237468445
0.0647931877805966
0.0649654203103222
0.0651256826134861
0.0652741353233016
0.0654109384361358
0.0655362513179231
0.0656502327096127
0.0657530407316795
0.0658448328877251
0.0658556597521101
0.0658572210876301
0.0658496437983859
0.0658330547518348
0.0658075807667696
0.0657733486007828
0.0657304849372381
0.06567911637177
0.0656193693983359
0.0655513703948413
0.0654039140419906
0.0652499202952815
0.0650894858298023
0.0649227077276708
0.0647496834501658
0.0645705108097963
0.0643852879423231
0.06419411327875
0.0639970855173002
0.063794303595394
0.0635623363976593
0.063325295887333
0.0630832718980184
0.0628363545835318
0.0625846343862645
0.0623282020057151
0.0620671483672062
0.0618015645907966
0.0615315419604041
0.0612571718931497
0.0610860934336767
0.0609086459391629
0.0607249651672386
0.0605351860074597
0.0603394424695646
0.0601378676716718
0.0599305938284358
0.0597177522391794
0.0594994732760196
0.0592758863720036
0.0590497225190307
0.0588184533756619
0.0585822065546047
0.0583411086611458
0.0580952852820036
0.0578448609742759
0.057589959254495
0.0573307025878063
0.0570672123772819
0.0567996089533826
0.0565994952866902
0.0563940404011367
0.0561833906746931
0.0559676907866429
0.0557470837196778
0.0555217107619772
0.055291711509285
0.0550572238669988
0.0548183840522839
0.0545753265962268
0.0542411680208445
0.0539048396405482
0.0535664352423793
0.053226047649458
0.052883768709254
0.0525396892822501
0.0521938992310023
0.0518464874096014
0.051497541653538
0.0511471487699752
0.0507917781030561
0.0504352049373856
0.0500775114572183
0.0497187788133235
0.0493590871147363
0.0489985154209397
0.0486371417344772
0.0482750429939979
0.0479122950677326
0.0475489727474012
0.0472274868669598
0.0469047050184696
0.0465807161010845
0.0462556075705105
0.0459294654419918
0.0456023742935797
0.0452744172696879
0.0449456760849323
0.0446162310282567
0.0442861609673424
0.044025593817035
0.0437631191275204
0.0434988402708827
0.0432328586445034
0.0429652736883578
0.0426961829023587
0.0424256818637495
0.0421538642445495
0.0418808218290515
0.0416066445313758
0.0411684549684856
0.0407326455825388
0.0402992339248428
0.0398682370824598
0.0394396716693444
0.0390135538180711
0.0385898991721437
0.0381687228788723
0.0377500395828086
0.0373338634197275
0.0368306225490085
0.0363317520256739
0.0358372276750385
0.0353470255287657
0.034861121806736
0.0343794928996861
0.0339021153526049
0.0334289658488676
0.0329600211950919
0.0324952583066991
0.032222784151388
0.0319505892241667
0.0316787278692041
0.0314072529471236
0.0311362158546697
0.0308656665443668
0.030595653544167
0.030326223977083
0.0300574235808027
0.0297892967272836
0.0294558365689541
0.0291244886923657
0.0287952663919676
0.0284681822157034
0.0281432479736212
0.0278204747466575
0.0274998728955861
0.0271814520701237
0.026865221218185
0.0265511885952778
0.0262076704940016
0.0258670147610103
0.0255292146306037
0.025194262943156
0.0248621521499097
0.0245328743179682
0.0242064211354782
0.0238827839169936
0.0235619536090102
0.0232439207956637
0.0229719186293389
0.0227018075879312
0.0224335949450137
0.0221672872817619
0.0219028905004215
0.0216404098377458
0.0213798498784003
0.021121214568326
0.0208645072280594
0.0206097305660029
0.0203273715628293
0.0200475519274688
0.019770260502114
0.0194954858111361
0.0192232160692064
0.0189534391894394
0.0186861427915504
0.0184213142100238
0.0181589405022845
0.0178990084568678
0.017810691952866
0.0177213215950263
0.0176309528249147
0.0175396394616431
0.0174474337376744
0.0173543863340423
0.0172605464149911
0.0171659616620439
0.0170706783075038
0.0169747411673956
0.0166785376533346
0.0163858587889784
0.0160966634228206
0.0158109107491211
0.0155285603054316
0.0152495719702513
0.0149739059608076
0.014701522830955
0.0144323834691848
0.0141664490967392
0.0138214079833557
0.0134811818848149
0.0131456992568302
0.0128148895553002
0.0124886832213767
0.0121670116668725
0.0118498072599985
0.0115370033114195
0.0112285340606198
0.0109243346625677
0.0107298756607544
0.010537396072623
0.0103468770189986
0.0101582996210343
0.009971645005529
0.00978689431014731
0.00960402868853951
0.00942302931536135
0.00924387739119269
0.00906655414735424
0.00887292430032473
0.00868145709422429
0.00849212644797959
0.00830490647792445
0.00811977149913322
0.00793669602670972
0.00775565477703056
0.00757662266894158
0.00739957482490678
0.00722448657210808
0.00713805281504647
0.00705175218579183
0.00696559620925425
0.00687959590848004
0.00679376181970522
0.00670810400707193
0.00662263207701343
0.0065373551923127
0.00645228208584009
0.00636742107397498
0.00630260539361102
0.00623761082665804
0.00617245265100497
0.00610714561625451
0.00604170395888988
0.00597614141709123
0.00591047124520744
0.00584470622788964
0.00577885869389239
0.00571294052954876
0.00558554551826026
0.00545936142883665
0.005334373700817
0.00521056788525797
0.00508792964660153
0.00496644476445221
0.00484609913526511
0.00472687877394634
0.00460876981536728
0.00449175851579417
0.00433101157845335
0.00417225397979858
0.00401545396032243
0.00386058025401522
0.00370760208205096
0.0035564891465445
0.00340721162437893
0.00325974016110146
0.00311404586488687
0.00297010030056704
0.00282967273673935
0.00269090153742515
0.00255376033959016
0.00241822319888992
0.00228426458430805
0.00215185937284857
0.00202098284428133
0.00189161067593994
0.00176371893757135
0.00163728408623656
0.00148091671913688
0.00132660329896728
0.00117430854632679
0.00102399780620787
0.000875637038004007
0.000729192805667724
0.000584632268016554
0.000441923169184266
0.0003010338292151
0.000161933134798604
0.00013932090385534
0.000116084797325194
9.22424168776346e-05
6.7810955159959e-05
4.28072059995135e-05
1.7247574357555e-05
-8.85191395969901e-06
-3.54756028275689e-05
-6.26081965614389e-05
-9.02347509022502e-05
-0.000145862623966944
-0.000201391391765348
-0.000256818403575426
-0.000312141100727869
-0.000367357013160684
-0.000422463756081247
-0.000477459026733039
-0.000532340601264493
-0.000587106331697275
-0.000641754142991332
-0.000710922248098437
-0.000779668368924466
-0.000847996638858865
-0.000915911133463453
-0.000983415870383461
-0.00105051480929317
-0.00111721185187472
-0.00118351084182882
-0.00124941556491624
-0.00131492974902885
-0.00140989620947802
-0.00150386771486973
-0.00159686006199656
-0.00168888874587197
-0.00177996896482142
-0.00187011562549853
-0.00195934334782771
-0.0020476664698737
-0.0021350990526393
-0.00222165488479213
-0.00234591509517913
-0.00246853470277957
-0.00258954252965931
-0.00270896682778544
-0.00282683528973053
-0.00294317505918446
-0.00305801274127777
-0.00317137441271927
-0.00328328563175159
-0.00339377144792769
-0.0033595426980939
-0.00332687506958952
-0.00329573334695421
-0.00326608301756165
-0.00323789025706557
-0.00321112191515443
-0.00318574550160805
-0.00316172917264982
-0.00313904171758821
-0.00311765254574127
-0.003071149208908
-0.00302642562020644
-0.00298344214960608
-0.00294215995364321
-0.00290254095935008
-0.00286454784851912
-0.0028281440422953
-0.00279329368608964
-0.00275996163480716
-0.00272811343838259
-0.00284022507099956
-0.00295083225544477
-0.00305996100896106
-0.00316763682135498
-0.00327388466532657
-0.00337872900660288
-0.00348219381387916
-0.00358430256857128
-0.00368507827438246
-0.00378454346668839
-0.00380085514592063
-0.0038175782377197
-0.00383470034106825
-0.00385220929311659
-0.00387009316429451
-0.00388834025352889
-0.00390693908356474
-0.00392587839638727
-0.00394514714874303
-0.00396473450775759
-0.00404356029171347
-0.00412147556402206
-0.00419849427438181
-0.00427463008345841
-0.00434989636861028
-0.00442430622950548
-0.00449787249363212
-0.00457060772170421
-0.0046425242129647
-0.00471363401038789
-0.00468537533820398
-0.00465835405525214
-0.00463254102515974
-0.00460790768272112
-0.00458442602247267
-0.00456206858750063
-0.00454080845847717
-0.00452061924291979
-0.00450147506466968
-0.0044833505535843
-0.00452830242167796
-0.00457295202988636
-0.00461730093593025
-0.0046613506557492
-0.00470510266437337
-0.0047485583967809
-0.00479171924874143
-0.00483458657764548
-0.00487716170332055
-0.00491944590883339
-0.00503544924891415
-0.00514964695667422
-0.00526207057242065
-0.0053727509964355
-0.00548171850183929
-0.00558900274719939
-0.00569463278888856
-0.00579863709319844
-0.00590104354821282
-0.00600187947544541
-0.00603127351144847
-0.00606058291116806
-0.00608980468755437
-0.00611893590393983
-0.00614797367311498
-0.00617691515642465
-0.00620575756288359
-0.00623449814831151
-0.00626313421448684
-0.00629166310831872
-0.00629249222895883
-0.00629377459457589
-0.00629549636361613
-0.00629764396256077
-0.0063002040806634
-0.00630316366479387
-0.00630650991438627
-0.00631023027648917
-0.00631431244091585
-0.00631874433549251
-0.00638633699360025
-0.00645296807212269
-0.00651865195906535
-0.00658340274768266
-0.0066472342424802
-0.00671015996509777
-0.00677219316007548
-0.00683334680050539
-0.00689363359357056
-0.0069530659859744
-0.00704016645443404
-0.00712585219815523
-0.00721014661053265
-0.00729307261155943
-0.00737465265740853
-0.00745490874982351
-0.00753386244532159
-0.00761153486421335
-0.00768794669944249
-0.00776311822524912
-0.00779545252462462
-0.00782743897946328
-0.00785907958447015
-0.00789037628956556
-0.00792133100089932
-0.00795194558184497
-0.00798222185397453
-0.00801216159801423
-0.00804176655478107
-0.00807103842610137
-0.00805943784052426
-0.00804833854583414
-0.00803772549985777
-0.00802758395707331
-0.00801789946279926
-0.0080086578474998
-0.00799984522120432
-0.00799144796803872
-0.00798345274086626
-0.00797584645603583
-0.00800169281202166
-0.0080272246484863
-0.00805244321173546
-0.00807734972059398
-0.00810194536707876
-0.00812623131705831
-0.0081502087108994
-0.00817387866410068
-0.00819724226791384
-0.00822030058995231
-0.00834565375429953
-0.00846860043546586
-0.00858918372596365
-0.00870744585640559
-0.00882342821286553
-0.00893717135389214
-0.00904871502718213
-0.00915809818592017
-0.00926535900479196
-0.00937053489567694
-0.00944125567256935
-0.00951062845433983
-0.00957867516026939
-0.00964541727203129
-0.0097108758425664
-0.00977507150478066
-0.00983802448006884
-0.00989975458666763
-0.00996028124784166
-0.0100196234999057
-0.0100727412492635
-0.0101248152363298
-0.0101758613077116
-0.0102258949950271
-0.0102749315213277
-0.0103229858073922
-0.0103700724778939
-0.0104162058674452
-0.0104614000265209
-0.0105056687272629
-0.0104283137710981
-0.0103525346629969
-0.0102782948506196
-0.010205558514345
-0.0101342905527389
-0.0100644565683131
-0.00999602285356947
-0.00992895637732244
-0.00986322477129548
-0.00979879631698524
-0.0097265492752454
-0.00965573020362431
-0.00958630552719177
-0.00951824234529988
-0.00945150841821933
-0.00938607215404283
-0.0093219025958502
-0.00925896940913023
-0.0091972428694538
-0.00913669385039344
-0.00923970511071625
-0.00934050797469211
-0.00943914167063779
-0.00953564464830679
-0.009630054594579
-0.00972240844883617
-0.0098127424180298
-0.00990109199144739
-0.00998749195518307
-0.0100719764063188
-0.0101440856992247
-0.0102145607685208
-0.0102834294216442
-0.0103507189169298
-0.010416455974708
-0.0104806667881814
-0.0105433770340825
-0.0106046118831186
-0.0106643960102075
-0.0107227536045082
-0.0107366626678638
-0.0107500745902089
-0.0107629945016954
-0.0107754274375364
-0.0107873783400199
-0.0107988520604804
-0.0108098533612321
-0.0108203869174622
-0.010830457319087
-0.0108400690725699
-0.0108139698817083
-0.0107881435706635
-0.0107625799416704
-0.0107372690092775
-0.010712200996212
-0.0106873663293287
-0.0106627556356376
-0.010638359738413
-0.010614169653378
-0.0105901765849664
-0.0105347005947237
-0.0104800538397191
-0.0104262150753509
-0.010373163490982
-0.01032087870137
-0.0102693407382683
-0.0102185300421949
-0.0101684274543658
-0.0101190142087889
-0.0100702719245165
-0.0100329598315277
-0.00999606213094111
-0.00995956597345026
-0.00992345877702047
-0.00988772822164968
-0.00985236224423355
-0.00981734903353298
-0.00978267702524205
-0.00974833489715408
-0.00971431156442428
-0.00963164696500799
-0.00955028313744951
-0.00947018959960474
-0.00939133648969995
-0.0093136945540277
-0.00923723513488865
-0.0091619301587741
-0.00908775212478462
-0.00901467409327985
-0.00894266967475512
-0.00883018559539773
-0.0087195752639363
-0.00861079683969778
-0.00850380933005568
-0.00839857257356963
-0.00829504722346176
-0.00819319473142331
-0.00809297733174465
-0.00799435802576234
-0.00789730056661709
-0.00786084604024403
-0.00782467200023888
-0.00778876860346977
-0.00775312621661949
-0.00771773541208534
-0.00768258696396064
-0.0076476718440961
-0.0076129812182397
-0.00757850644225327
-0.00754423905840442
-0.00758973205147312
-0.00763378507025137
-0.00767642283549432
-0.00771766958842078
-0.00775754910039502
-0.00779608468241453
-0.00783329919440765
-0.00786921505434475
-0.0079038542471667
-0.00793723833353446
-0.00801469471735954
-0.00809000910478488
-0.00816322042172967
-0.00823436683192453
-0.00830348575224144
-0.00837061386771656
-0.00843578714627197
-0.00849904085314269
-0.00856040956501466
-0.00861992718387932
-0.00852658285484593
-0.00843454965151251
-0.00834379756484288
-0.00825429720128454
-0.00816601977054246
-0.00807893707359659
-0.0079930214909589
-0.00790824597116455
-0.007824584019493
-0.00774200968691413
-0.00775005265290835
-0.00775729706584886
-0.00776375529049523
-0.00776943946153401
-0.00777436148825781
-0.00777853305915031
-0.00778196564637899
-0.00778467051019765
-0.00778665870326026
-0.00778794107484811
-0.00781611053363682
-0.00784302984308326
-0.00786872058276422
-0.00789320391898174
-0.00791650061310085
-0.00793863102972011
-0.00795961514467819
-0.00797947255289976
-0.00799822247608405
-0.00801588377023894
-0.00803630943067103
-0.00805560449968585
-0.00807378835306605
-0.00809087999814226
-0.00810689808122916
-0.00812186089491226
-0.0081357863851885
-0.00814869215846344
-0.00816059548840793
-0.00817151332267723
-0.00807731618831319
-0.00798430148358308
-0.00789244249011244
-0.00780171304231733
-0.00771208751641157
-0.0076235408196332
-0.00753604837968606
-0.00744958613439192
-0.00736413052154911
-0.0072796584689934
-0.00726760471321752
-0.0072550249385918
-0.00724192680146382
-0.00722831782496719
-0.00721420540174256
-0.00719959679660402
-0.00718449914915131
-0.00716891947632942
-0.00715286467493635
-0.00713634152408025
-0.00709382995244588
-0.00705138654090297
-0.00700900725714671
-0.00696668816966013
-0.00692442544575007
-0.00688221534962187
-0.00684005424049201
-0.00679793857073797
-0.00675586488408444
-0.00671382981382537
-0.00662561924193958
-0.00653838813113702
-0.00645211441464714
-0.00636677648709779
-0.00628235319533402
-0.00619882382941993
-0.00611616811382
-0.00603436619875616
-0.00595339865173722
-0.00587324644925716
-0.00597251999304351
-0.00606891015662654
-0.00616247237959627
-0.00625326101546391
-0.00634132935342241
-0.00642672963967113
-0.00650951309831335
-0.0065897299518354
-0.00666742944117534
-0.00674265984538989
-0.00656939041198847
-0.0063987902121924
-0.00623080379756097
-0.00606537684865647
-0.00590245615250012
-0.00574198958047841
-0.0055839260666907
-0.00542821558672924
-0.00527480913688335
-0.00512365871375857
-0.00498994701687296
-0.00485808605399555
-0.00472803695257037
-0.00459976163805056
-0.00447322281796853
-0.00434838396632416
-0.00422520930828478
-0.00410366380519039
-0.00398371313985851
-0.00386532370218209
-0.00382351638037389
-0.00378166653758407
-0.00373977339292771
-0.0036978362029016
-0.00365585426066041
-0.00361382689530687
-0.00357175347119539
-0.00352963338724921
-0.00348746607629047
-0.00344525100438318
-0.00348654063960409
-0.00352606871790791
-0.00356386907969306
-0.00359997491155864
-0.0036344187593973
-0.00366723254122564
-0.00369844755975759
-0.00372809451472544
-0.00375620351495401
-0.00378280409019273
-0.00382249708094463
-0.00386044029347364
-0.00389666756720252
-0.0039312120880962
-0.00396410640174153
-0.00399538242616496
-0.00402507146439311
-0.00405320421676164
-0.00407981079297724
-0.0041049207239378
-0.00409395240369098
-0.00408225432193846
-0.00406984014239994
-0.00405672327850262
-0.00404291689839206
-0.00402843392984221
-0.00401328706506656
-0.00399748876543253
-0.00398105126608101
-0.0039639865804528
-0.00393604648578428
-0.0039077129133572
-0.00387899302849534
-0.00384989387609378
-0.00382042238302668
-0.0037905853605061
-0.00376038950639316
-0.00372984140746242
-0.00369894754162026
-0.00366771428007841
-0.00357909860610122
-0.00349132547029866
-0.00340437753137391
-0.00331823781699309
-0.00323288971639993
-0.00314831697317754
-0.00306450367815432
-0.00298143426245117
-0.00289909349066731
-0.00281746645420164
-0.00277531164654557
-0.00273304686810164
-0.00269067405895106
-0.00264819514290244
-0.00260561202780495
-0.00256292660585444
-0.00252014075389306
-0.00247725633370217
-0.00243427519228885
-0.00239119916216616
-0.00240785143360272
-0.0024231861084394
-0.00243722951963272
-0.00245000749659838
-0.00246154537526315
-0.00247186800791504
-0.00248099977285594
-0.00248896458386059
-0.00249578589944582
-0.00250148673195375
-0.00234603851945071
-0.00219279557342784
-0.00204171395784642
-0.00189275063631296
-0.00174586345406346
-0.00160101112030751
-0.00145815319092495
-0.00131725005150803
-0.00117826290074227
-0.00104115373411908
-0.00112368259020572
-0.00120355093210374
-0.00128081240468488
-0.00135551960328697
-0.00142772409467348
-0.00149747643757355
-0.00156482620281037
-0.00162982199302667
-0.00169251146201488
-0.00175294133366016
-0.00173405019546675
-0.00171457088017744
-0.00169451579786052
-0.0016738971324571
-0.00165272684626771
-0.00163101668434867
-0.00160877817881997
-0.00158602265308642
-0.00156276122597379
-0.00153900481578176
-0.00150336936705139
-0.00146749377755251
-0.00143138371269639
-0.00139504474613533
-0.00135848236155663
-0.0013217019544399
-0.00128470883377883
-0.00124750822376806
-0.00121010526545556
-0.00117250501836159
-0.00103248411240651
-0.000894371466617596
-0.000758129965134441
-0.000623723254262471
-0.000491115727184213
-0.000360272508975872
-0.000231159441923051
-0.000103743071129711
2.20093695856113e-05
0.000146129971511955
0.000161454922242519
0.000177407734847068
0.000193974578236899
0.000211141877248284
0.000228896307575634
0.000247224790806697
0.00026611448955742
0.00028555280270465
0.000305527360714806
0.000326026021066358
0.000335887908118143
0.000346478827827267
0.000357782718186485
0.000369783818134771
0.000382466661595426
0.000395816071633862
0.000409817154732873
0.00042445529518278
0.000439716149584326
0.000455585641462045
0.000435258262402664
0.00041626637267574
0.000398581571174816
0.000382176004659922
0.000367022356862723
0.000353093837810105
0.000340364173361768
0.000328807594957612
0.000318398829570558
0.000309113089860961
0.00034224954128477
0.000375613736346497
0.000409199241011518
0.00044299973092823
0.000477008989301301
0.000511220904807947
0.00054562946955629
0.000580228777085095
0.000615013020403876
0.000649976490072748
0.000745219677390054
0.000839398789825644
0.000932533058575378
0.0010246413126462
0.00111574198697065
0.00120585313035956
0.00129499241329607
0.0013831771355742
0.00147042423378515
0.00155675028865418
0.00149989263064116
0.00144506275116245
0.00139221783460121
0.00134131590305661
0.00129231579966636
0.00124517717226324
0.00119986045735897
0.00115632686444879
0.00111453836063049
0.0010744576555314
0.00101754966438408
0.000962656277364733
0.000909734755040158
0.000858743194729624
0.000809640513851365
0.000762386433602522
0.000716941462966082
0.000673266883037901
0.000631324731667858
0.000591077788408397
0.000723582200235637
0.000854202168291788
0.000982972802350472
0.00110992849490259
0.00123510293558558
0.00135852912532449
0.00148023939019049
0.00160026539498273
0.00171863815653878
0.00183538805677926
0.00192582079299685
0.00201519641801011
0.00210353334138769
0.00219084958996635
0.00227716281559306
0.00236249030271265
0.002446848975804
0.00253025540666787
0.00261272582156932
0.00269427610823765
0.00277489602581902
0.00285462713115598
0.00293348432640379
0.00301148220202397
0.00308863504310899
0.00316495683558088
0.00324046127226611
0.00331516175884933
0.0033890714197084
0.00346220310363291
0.00344937667034545
0.00343754359316077
0.00342668097613597
0.00341676636746669
0.00340777775069936
0.00339969353611973
0.00339249255231374
0.00338615403789763
0.00338065763341378
0.00337598337338885
0.00349109095402701
0.00360454283912617
0.00371636901150762
0.00382659884299135
0.00393526110671299
0.00404238398919422
0.00414799510217246
0.00425212149419399
0.00435478966197551
0.00445602556153868
0.00438231870312333
0.00431078737410677
0.00424138477821622
0.00417406504259397
0.00410878319943059
0.00404549516796569
0.00398415773684908
0.00392472854685486
0.00386716607394159
0.00381142961265156
0.00372399305340476
0.00363898994884559
0.00355636821490731
0.00347607679730806
0.00339806565105973
0.00332228572038725
0.00324868891904945
0.00317722811105398
0.00310785709175807
0.0030405305693476
0.003138253425751
0.00323459037215638
0.00332956564034861
0.00342320296865406
0.00351552561191496
0.0036065563512644
0.00369631750370609
0.00378483093150272
0.0038721180513768
0.00395819984352747
0.00395089788083032
0.00394432134377629
0.00393845212977524
0.00393327248938711
0.00392876501936712
0.00392491265585023
0.00392169866767225
0.00391910664982455
0.00391712051703993
0.00391572449750695
0.00403897987798822
0.00416025118631422
0.00427957445827968
0.00439698500268542
0.0045125174159866
0.00462620559664821
0.00473808275921356
0.00484818144809148
0.00495653355106798
0.00506317031254765
0.00521599529978066
0.00536618416637096
0.00551378594375676
0.00565884867815069
0.00580141945035319
0.00594154439516988
0.00607926872044052
0.00621463672568762
0.00634769182039193
0.0064784765419028
0.00659246529963707
0.00670456483959215
0.0068148092102714
0.00692323177552435
0.00702986522834972
0.00713474160442236
0.0072378922953497
0.00733934806166318
0.0074391390455499
0.00753729478332964
0.0075418584912616
0.00754672995249359
0.0075518992200875
0.00755735654232489
0.00756309235891425
0.00756909729727405
0.00757536216889019
0.00758187796574648
0.0075886358568264
0.00759562718468502
0.00761159653964541
0.00762760308686065
0.00764364226074688
0.00765970958453914
0.00767580066862691
0.00769191120892297
0.0077080369852649
0.00772417385984867
0.00774031777569343
0.00775646475513717
0.00772485457945774
0.00769421874261137
0.00766453390366487
0.0076357771865411
0.00760792617083465
0.00758095888281109
0.0075548537865863
0.0075295897754822
0.00750514616355541
0.0074815026772953
0.00756118356489171
0.00763952309467371
0.00771654425199299
0.00779226956292614
0.00786672110357151
0.0079399205091602
0.0080118889829846
0.00808264730514849
0.00815221584114196
0.00822061455024481
0.00820955507894825
0.00819896981576993
0.00818884542352322
0.00817916883234104
0.00816992723444136
0.00816110807899724
0.00815269906710945
0.00814468814687958
0.00813706350858162
0.00812981357993006
0.00817492623331807
0.00821932516840999
0.00826302083097424
0.00830602346019785
0.00834834309292858
0.00838998956783205
0.00843097252946573
0.00847130143227137
0.00851098554448729
0.00855003395198258
0.00849896813236898
0.00844911872855605
0.00840045758845172
0.00835295712533441
0.00830659030665615
0.00826133064306965
0.00821715217767466
0.00817402947547925
0.00813193761307198
0.00809085216850018
0.00824616826768122
0.00839843733986603
0.00854771658134048
0.00869406205030906
0.00883752868976342
0.00897817034989345
0.00911603981004981
0.00925118880026717
0.00938366802235658
0.00951352717057608
0.00949843416455738
0.00948373631919658
0.00946942201290316
0.00945547986166425
0.00944189871439984
0.00942866764841081
0.00941577596491777
0.00940321318468903
0.00939096904375569
0.00937903348921239
0.00932912182953828
0.00928028389672497
0.00923249454406001
0.00918572913349838
0.00913996352559463
0.00909517406963623
0.00905133759397402
0.00900843139654592
0.00896643323558991
0.00892532132054258
0.00876671366051224
0.0086113763614937
0.00845924037509425
0.00831023803920619
0.0081643030503862
0.00802137043678693
0.00788137653162985
0.0077442589472084
0.00760995654941089
0.00747840943275282
0.00758235768482322
0.00768417264996763
0.00778389347170933
0.00788155851993725
0.00797720540647888
0.00807087100036129
0.00816259144276686
0.00825240216168946
0.00834033788629726
0.008426432661008
0.00839356705890345
0.00836132821390596
0.0083297001347563
0.00829866715879805
0.00826821394550429
0.0082383254701337
0.00820898701751308
0.00818018417594404
0.00815190283123128
0.00812412916083002
0.00818430027369901
0.00824315954078988
0.00830072985803674
0.00835703367428939
0.00841209300034992
0.00846592941782826
0.00851856408782042
0.00857001775941264
0.00862031077801542
0.00866946309353018
0.00870667832748764
0.00874301332889893
0.00877848247117342
0.00881309985188787
0.00884687929839515
0.00887983437331996
0.00891197837994472
0.00894332436748711
0.00897388513627188
0.00900367324279888
0.00912303928761319
0.00923980514813895
0.00935401974097039
0.0094657310180245
0.0095749859859219
0.00968183072497951
0.00978631040782308
0.00988846931762694
0.00998835086598876
0.0100859976104462
0.0100347230697912
0.00998430425594207
0.00993472106919806
0.00988595382454853
0.00983798324346401
0.00979079044585149
0.00974435694217009
0.00969866462570397
0.00965369576498949
0.00960943299639359
0.00957146607211609
0.00953405664946195
