1.78259290740706e-05
3.52864288671299e-05
5.23888126417459e-05
6.91402476154921e-05
8.55477578816144e-05
0.00010161822727128
0.000117358402158575
0.0001327748942094
0.000147874183075376
0.000162662619033873
0.000437874432276057
0.000707442824331266
0.000971480738898251
0.00123009886424103
0.00148340567829388
0.00173150749286418
0.00197450849695109
0.00221251079919776
0.00244561446949445
0.00267391757974949
0.00287940818486486
0.00308065975174021
0.00327775716588079
0.00347078361825663
0.00365982063918891
0.00384494813155864
0.00402624440335096
0.0042037861995486
0.00437764873338729
0.00454790571698606
0.00493709523008983
0.00531826171188473
0.00569156581765189
0.00605716499544413
0.00641521355022266
0.00676586270671075
0.00710926067099026
0.00744555269086615
0.00777488111502342
0.00809738545100091
0.00843447780513223
0.00876458064619213
0.00908783402307764
0.00940437518976218
0.00971433866118442
0.0100178562680191
0.0103150572103526
0.0106060681102843
0.0108910130634762
0.0111700136896717
0.0114431685507137
0.0117106155164728
0.0119724690635768
0.0122288413850722
0.0124798424360846
0.0127255799785656
0.0129661596251456
0.013201684882108
0.013432257191505
0.01365797597243
0.0138325829178719
0.0140034795519865
0.0141707404465554
0.0143344386871856
0.0144946459030212
0.0146514322958606
0.014804866668691
0.014955016453653
0.0151019477394442
0.0152457252981766
0.0153729852049605
0.0154974923440323
0.0156193021848385
0.0157384690924076
0.015855046349425
0.015969086177867
0.0160806397602016
0.0161897572601656
0.0162964878431258
0.0164008796960325
0.0164190388314354
0.0164366735375171
0.0164537947440419
0.0164704131659771
0.0164865393077764
0.016502183467577
0.0165173557413123
0.0165320660267433
0.0165463240274082
0.0165601392564937
0.0164225991024457
0.016287728527791
0.0161554745799119
0.0160257853670428
0.015898610037041
0.0157738987565826
0.015651602690774
0.0155316739831712
0.0154140657361987
0.0152987319919603
0.0150487798188489
0.0148038183413203
0.0145637481659845
0.0143284718873073
0.0140978940478424
0.0138719210992597
0.0136504613641518
0.0134334249986056
0.0132207239555216
0.0130122719486674
0.0126574626618822
0.0123098206581196
0.0119692029721561
0.011635469496096
0.0113084829222163
0.0109881086869552
0.0106742149160199
0.0103666723705933
0.0100653543946163
0.00977013686312419
0.00931445930791481
0.00886805331377475
0.00843073376611006
0.00800231924850324
0.00758263196874395
0.00717149768633922
0.00676874564147354
0.00637420848538991
0.00598772221216329
0.00560912609183879
0.0052019509172883
0.00480309838783537
0.0044124023162779
0.00402969983454092
0.00365483132728992
0.00328764036687187
0.00292797364955763
0.00257568093305961
0.00223061497529921
0.00189263147439897
0.00140676377857234
0.000930872419969816
0.000464758050581257
8.22530278994221e-06
-0.000438917290236269
-0.000876857372561539
-0.00130577884193806
-0.00172586192473284
-0.00213728324935577
-0.00254021591821897
-0.00303488177005288
-0.00351934381640839
-0.003993806046605
-0.00445846837798163
-0.0049135267373343
-0.00535917314072486
-0.00579559577169339
-0.00622297905790608
-0.00664150374627002
-0.00705134697654553
-0.00739469599184353
-0.00773089600729541
-0.00806008997884235
-0.00838241801036805
-0.00869801741073675
-0.00900702274969037
-0.0093095659126275
-0.00960577615428661
-0.00989578015135547
-0.0101797020540282
-0.0102139933621784
-0.0102474387055447
-0.0102800549858887
-0.0103118587709481
-0.0103428663011162
-0.0103730934959863
-0.0104025559607665
-0.010431268992565
-0.0104592475865501
-0.010486506441987
-0.010509838544241
-0.0105325454810932
-0.0105546397775019
-0.0105761337118769
-0.0105970393210081
-0.0106173684048946
-0.0106371325314786
-0.0106563430412826
-0.0106750110519558
-0.0106931474627277
-0.0105931855028015
-0.0104951234264561
-0.0103989232661995
-0.010304547816357
-0.0102119606178326
-0.0101211259431757
-0.0100320087819457
-0.00994457482636971
-0.00985879045728681
-0.00977462273037358
-0.00954458594232082
-0.00931912465495728
-0.00909814737433653
-0.00888156443701335
-0.00866928797343299
-0.00846123187205261
-0.00825731174418028
-0.00805744488951717
-0.00786155026238894
-0.00766954843865243
-0.00757826602069974
-0.00748873576471428
-0.00740092267513692
-0.00731479245813138
-0.00723031150754764
-0.00714744689116601
-0.00706616633721631
-0.00698643822116661
-0.00690823155277611
-0.00683151596340702
-0.00658089700584359
-0.00633530515916214
-0.00609463990083024
-0.00585880271838756
-0.00562769706924415
-0.00540122834128274
-0.00517930381424905
-0.0049618326219142
-0.00474872571499402
-0.00453989582480985
-0.00444283627740652
-0.00434767905671116
-0.00425438616030262
-0.00416292034675642
-0.00407324512042317
-0.00398532471651144
-0.00389912408646897
-0.00381460888365623
-0.00373174544930645
-0.00365050079876644
-0.00350251547555104
-0.00335748563304714
-0.00321535219723406
-0.00307605727565845
-0.00293954413380203
-0.00280575717192196
-0.00267464190235436
-0.00254614492727185
-0.00242021391688579
-0.00229679758808465
-0.00206141394254836
-0.00183079130523538
-0.00160483446237865
-0.00138345010315006
-0.0011665467816022
-0.000954034879371305
-0.000745826569126225
-0.000541835778748381
-0.000341978156228202
-0.000146171035263633
1.37671144960258e-06
0.000145942303324031
0.000287585378774482
0.000426364384229759
0.000562336597972037
0.000695558153499503
0.000826084062421719
0.000953968236897002
0.00107926351162111
0.00120202166537609
0.00132967135477322
0.00145473315080192
0.00157725881639038
0.00169729908007785
0.00181490365670184
0.00193012126767152
0.00204299966083567
0.00215358562995326
0.00226192503377456
0.00236806281474065
0.0024246071845904
0.0024800095690182
0.00253429280901502
0.00258747928902872
0.00263959094609476
0.00269064927878419
0.00274067535597284
0.00278968982543496
0.00283771292226506
0.00288476447713132
0.00292538705697981
0.00296518885019869
0.00300418627512441
0.00304239542193366
0.00307983205920637
0.00311651164035747
0.00315244930994005
0.00318765990982232
0.00322215798524119
0.00325595779073468
0.00323000057762737
0.00320458373793259
0.00317969645334833
0.00315532812141371
0.00313146835119269
0.00310810695904418
0.00308523396447664
0.00306283958608573
0.00304091423757317
0.00301944852384517
0.00300546877402415
0.00299178619958517
0.00297839484280976
0.00296528886470188
0.00295246254261402
0.00293991026792091
0.00292762654373958
0.00291560598269517
0.00290384330473142
0.00289233333496488
0.00292404634845192
0.00295512103836832
0.00298557016395805
0.00301540622938554
0.00304464148883741
0.00307328795152213
0.00310135738656974
0.00312886132783351
0.00315581107859559
0.00318221771617854
0.00308723953430753
0.00299421719617901
0.00290311154704168
0.00281388421385251
0.00272649758964424
0.00264091481820555
0.00255709977906775
0.00247501707279159
0.0023946320065486
0.00231591057999064
0.00249760880145031
0.00267559953584231
0.00284995694914124
0.00302075372583126
0.00318806109853459
0.00335194887704732
0.00351248547679445
0.00366973794671582
0.00382377199659431
0.00397465202383733
0.00414481439997334
0.00431148906662859
0.00447474581831993
0.00463465305576372
0.00479127781374975
0.00494468578845761
0.00509494136422665
0.00524210763979057
0.00538624645398724
0.00552741841095421
0.00555354540552732
0.00557912194980446
0.00560415908449518
0.00562866763017582
0.00565265819169096
0.00567614116246693
0.00569912672873898
0.0057216248736939
0.00574364538152978
0.00576519784143453
0.00560334307738414
0.00544478929678899
0.00528947047043956
0.00513732188811875
0.00498828013222307
0.00484228305191151
0.0046992697377714
0.00455918049699108
0.00442195682902909
0.00428754140177003
0.00430924312607423
0.00433049787410695
0.00435131460022638
0.00437170208001919
0.00439166891387549
0.00441122353049215
0.00443037419030618
0.00444912898885934
0.00446749586009547
0.00448548257959187
0.00457487629033335
0.00466243346690084
0.00474819087677492
0.00483218455328347
0.00491444981028315
0.00499502125654722
0.00507393280986565
0.00515121771086311
0.00522690853654063
0.0053010372135464
0.00531634112475565
0.00533131935909395
0.00534597846375945
0.00536032485547855
0.00537436482311419
0.00538810453022205
0.00540155001755559
0.00541470720552095
0.00542758189658276
0.00544017977762186
0.00539697218714061
0.00535463726760608
0.00531315758936116
0.00527251607111653
0.00523269597298276
0.00519368088964191
0.00515545474365559
0.00511800177890693
0.00508130655417368
0.00504535393682992
0.00501566799591839
0.00498658175163663
0.00495808323299261
0.00493016070825267
0.00490280268015596
0.0048759978812244
0.00484973526916662
0.00482400402237374
0.00479879353550519
0.00477409341516296
0.00479452644907643
0.00481453471139126
0.00483412673055454
0.00485331086482977
0.00487209530569954
0.0048904880812001
0.00490849705918928
0.00492612995054893
0.00494339431232347
0.00496029755079548
0.00502246680617844
0.00508335410875719
0.00514298514637867
0.00520138509407125
0.00525857862429944
0.00531458991701345
0.00536944266949767
0.00542316010602222
0.00547576498730149
0.00552727961976338
0.00543184792570278
0.00533835974818749
0.00524677623670825
0.00515705931688382
0.00506917167493846
0.00498307674248971
0.00489873868164065
0.00481612237037016
0.00473519338821549
0.00465591800224118
0.00469768779408308
0.00473859753412766
0.00477866446574572
0.00481790548803486
0.00485633716270355
0.00489397572081758
0.0049308370694115
0.00496693679796786
0.00500229018476681
0.00503691220310876
0.00493827323737496
0.00484164910022069
0.0047469995085131
0.00465428498372428
0.00456346683583943
0.00447450714758681
0.00438736875898321
0.00430201525218846
0.00421841093666295
0.00413652083462197
0.00410653259891544
0.00407716115942765
0.00404839419628636
0.00402021963558319
0.00399262564445422
0.00396560062625891
0.00393913321585558
0.00391321227497129
0.00388782688766435
0.00386296635587765
0.00386857846092584
0.0038740805210466
0.00387947475670981
0.00388476334391165
0.00388994841506363
0.00389503205986392
0.0039000163261512
0.00390490322074145
0.003909694710248
0.00391439272188524
0.00387614706669054
0.00383869013513818
0.00380200616042263
0.00376607969047676
0.00373089558167731
0.00369643899267623
0.00366269537835536
0.00362965048390215
0.00359729033900377
0.00356560125215742
0.00349660440453762
0.00342903033208981
0.00336285057105123
0.00329803722587043
0.00323456295784393
0.00317240097398014
0.00311152501608611
0.00305190935007253
0.00299352875547265
0.00293635851517091
0.00300264160496855
0.00306758062276746
0.0031312024632314
0.00319353348358801
0.00325459951437705
0.00331442586998387
0.00337303735896204
0.00343045829414964
0.00348671250258321
0.00354182333521334
0.00361936399176872
0.00369532380558687
0.00376973441747904
0.00384262683618455
0.0039140314510115
0.00398397804422475
0.00405249580318608
0.00411961333225154
0.00418535866443087
0.0042497592728138
0.00420850889869964
0.00416810592877116
0.00412853341893917
0.00408977476344448
0.00405181368809194
0.00401463424361989
0.00397822079920224
0.0039425580360805
0.0039076309413233
0.00387342480171065
0.00383621572367079
0.0037997750933634
0.00376408753937175
0.00372913799711823
0.00369491170272869
0.00366139418701948
0.00362857126960493
0.0035964290531226
0.00356495391757415
0.00353413251477941
0.00357059702761817
0.00360632315121608
0.00364132566254544
0.0036756190432868
0.0037092174857356
0.00374213489859071
0.0037743849126272
0.00380598088625579
0.00383693591097109
0.00386726281669093
0.00390500030794913
0.00394197004147823
0.00397818738624424
0.00401366740419084
0.00404842485638097
0.00408247420901579
0.00411582963933322
0.00414850504138865
0.00418051403172006
0.00421186995489996
0.00426058841670886
0.00430831065673882
0.00435505662159275
0.00440084585953637
0.00444569752846662
0.00448963040372099
0.00453266288573062
0.0045748130075205
0.00461609844205976
0.00465653650946506
0.00464329465855318
0.00463032245883769
0.00461761453163591
0.00460516560580304
0.004592970515585
0.00458102419851439
0.00456932169334861
0.00455785813804953
0.00454662876780359
0.00453562891308182
0.00459392303226707
0.00465102169977443
0.00470694885692442
0.00476172796707262
0.0048153820251735
0.00486793356715317
0.00491940467909494
0.00496981700624138
0.00501919176181658
0.00506754973567211
0.00522064505850927
0.00537059641437873
0.00551746675149369
0.00566131776132673
0.00580220990375033
0.0059402024316747
0.0060753534151932
0.00620771976524513
0.00633735725680558
0.00646432055161182
0.00650248434793381
0.00653984667584218
0.00657642363349276
0.00661223099830676
0.00664728423339541
0.0066815984938566
0.00671518863294591
0.00674806920812473
0.00678025448698793
0.00681175845307337
0.00668224629657403
0.00655536708904665
0.00643106821101626
0.00630929809476515
0.0061900062033147
0.0060731430098283
0.0059586599774268
0.00584650953940836
0.00573664507986462
0.00562902091468526
0.00555626929407452
0.00548499944613447
0.00541518177801414
0.00534678728869272
0.00527978755716689
0.00521415473087546
0.00514986151435615
0.00508688115813038
0.00502518744781116
0.00496475469342991
0.00503443605464426
0.00510268653398411
0.00516953482642372
0.00523500905488563
0.00529913678171404
0.00536194501991962
0.00542346024420085
0.00548370840174597
0.00554271492282009
0.00560050473114199
0.00548362240662767
0.00536912805246887
0.00525697396115187
0.00514711337939513
0.00503950048911209
0.00493409038875631
0.00483083907504134
0.00472970342502777
0.00463064117857037
0.0045336109211179
0.00455937609081374
0.00458461642297448
0.00460934250109209
0.00463356469911411
0.0046572931856982
0.00468053792838377
0.00470330869768217
0.00472561507108719
0.00474746643700764
0.0047688719986235
0.00469128145655104
0.00461528342945919
0.00454084615230808
0.0044679384970018
0.00439652995973755
0.00432659064861048
0.00425809127146908
0.00419100312401645
0.00412529807815227
0.00406094857055104
0.0040832754647069
0.0041051547997078
0.0041265956551174
0.00414760693261515
0.00416819735967085
0.00418837549314932
0.00420814972284642
0.00422752827495794
0.00424651921548274
0.00426513045356171
0.00432936862953577
0.00439229949252079
0.00445394937198903
0.00451434407643298
0.00457350890393954
0.00463146865255705
0.0046882476304594
0.00474386966591139
0.00479835811703941
0.00485173588141144
0.00488182528597848
0.00491130355426839
0.00494018314998842
0.00496847629466009
0.00499619497266568
0.00502335093619934
0.0050499557101247
0.00507602059674091
0.00510155668045923
0.00512657483239192
0.00512332649756755
0.00512015041164105
0.00511704544402109
0.00511401049576055
0.00511104449918646
0.00510814641754414
0.00510531524465524
0.00510255000458948
0.00509984975135017
0.00509721356857314
0.00520070754378822
0.00530208948499632
0.00540140207807634
0.00549868716847833
0.00559398577836647
0.00568733812342737
0.00577878362935026
0.00586836094798601
0.00595610797319146
0.00604206185636543
0.00598592771937663
0.00593094935028724
0.00587710419105424
0.00582437015007488
0.0057727255932813
0.00572214933542302
0.0056726206315334
0.0056241191685768
0.00557662505727279
0.00553011882409417
0.00550511801647808
0.00548064635807562
0.00545669400164268
0.00543325131709934
0.00541030888771294
0.00538785750636869
0.00536588817192622
0.00534439208566051
0.00532336064778561
0.00530278545405969
0.0054625663195693
0.00561909910249893
0.00577244977469709
0.00592268301680335
0.00606986224471537
0.00621404963553936
0.00635530615303423
0.00649369157256
0.00662926450554023
0.00676208242344853
0.00671100252344169
0.00666099378479729
0.00661203605970709
0.00656410963632526
0.00651719523082776
0.00647127397964465
0.006426327431862
0.00638233754179024
0.00633928666169557
0.00629715753469146
0.00628562977542186
0.00627438162613577
0.00626340914466728
0.00625270850950428
0.00624227601830041
0.00623210808643206
0.00622220124559955
0.00621255214247172
0.00620315753737312
0.00619401430301304
0.00617520873473496
0.00615685178274437
0.00613893658372856
0.00612145646327546
0.00610440493317677
0.0060877756888007
0.00607156260653341
0.00605575974128736
0.00604036132407561
0.0060253617596504
0.00599235366756741
0.00596011098763543
0.00592862108269842
0.00589787163127773
0.005867850622499
0.00583854635113641
0.00580994741277176
0.00578204269906606
0.00575482139314126
0.00572827296506992
0.00561349055249737
0.00550118317057132
0.00539130465348948
0.00528380983370882
0.00517865452337633
0.00507579549614594
0.00497519046937373
0.00487679808668371
0.00478057790089649
0.00468649035731338
0.00459011987641578
0.00449589526655025
0.00440377775794414
0.00431372944571144
0.00422571327408982
0.00413969302100539
0.00405563328295849
0.00397349946022346
0.00389325774235616
0.0038148750940024
0.00395590545253113
0.00409427059014649
0.00423002898141169
0.004363238039449
0.00449395413880994
0.00462223263789677
0.00474812790094372
0.00487169331956634
0.00499298133388704
0.00511204345324482
0.00511430435882379
0.00511678949332163
0.00511950066753381
0.00512243977941792
0.00512560881405671
0.00512900984362511
0.00513264502736047
0.00513651661153519
0.00514062692943122
0.00514497840131533
0.00499934751625271
0.00485704250085257
0.004718004404487
0.004582175594187
0.00444949972999773
0.00431992174082262
0.00419338780074534
0.00406984530581966
0.00394924285131652
0.00383153020941856
0.00405252321930441
0.00426942384183213
0.00448232304229306
0.00469131012625896
0.0048964727743978
0.00509789707657962
0.00529566756528534
0.00548986724833173
0.00568057764092476
0.00586787879705391
0.00594162618844512
0.00601437975066193
0.00608617011586671
0.00615702747726889
0.00622698159933981
0.00629606182779808
0.00636429709936897
0.00643171595132084
0.00649834653078198
0.0065642166038409
0.00662661228450405
0.00668835807904917
0.00674947953828913
0.00681000188875048
0.00686995004028541
0.00692934859349315
0.00698822184695315
0.00704659380427232
0.00710448818094873
0.00716192841105385
0.00706604230097136
0.00697288242932035
0.00688240869738356
0.00679458200262202
0.00670936421943075
0.0066267181802263
0.00654660765685794
0.00646899734233455
0.00639385283285926
0.00632114061016419
0.00631983804748035
0.00631948862571216
0.00632008969211556
0.00632163884627804
0.00632413393515005
0.00632757304810708
0.0063319545120403
0.00633727688647344
0.00634353895870394
0.00635073973896622
0.00642824809884813
0.00650527176792142
0.00658183885598033
0.00665797710825646
0.00673371391202901
0.00680907630301843
0.00688409097156615
0.00695878426860309
0.00703318221140979
0.00710731048917065
0.0070901608948327
0.00707465822742248
0.0070607898757242
0.00704854366645995
0.00703790785393797
0.00702887110980853
0.00702142251292395
0.00701555153929908
0.0070112480521691
0.00700850229214122
0.00688638694979115
0.00676828971087852
0.0066541522821646
0.00654391769992727
0.00643753030072444
0.00633493569262983
0.00623608072693052
0.00614091347027576
0.00604938317726718
0.00596144026348034
0.00594968631723984
0.00593993464192466
0.00593216878372411
0.00592637275080196
0.00592253100023815
0.00592062842510939
0.00592065034170508
0.00592258247687506
0.00592641095550605
0.00593212228812338
0.00599959632574658
0.00606769954812219
0.00613644412118858
0.00620584205743011
0.00627590521387493
0.00634664529000499
0.00641807382557982
0.00649020219837563
0.00656304162184124
0.00663660314267244
0.00652800550625379
0.006423900815701
0.00632422456881141
0.00622891358454996
0.00613790597027482
0.00605114108949093
0.00596855953012135
0.00589010307328634
0.00581571466258073
0.00574533837384007
0.00597001784711236
0.00619263339071912
0.00641325172657176
0.00663193820767286
0.00684875683788905
0.00706377029120767
0.00727703993048862
0.00748862582572269
0.00769858677180733
0.00790698030585111
0.00792101153164556
0.00793754013811386
0.00795654086917404
0.0079779888556714
0.00800185959888764
0.0080281289542734
0.00805677311540172
0.00808776859813986
0.00812109222503709
0.00815672110992637
0.00828874819063322
0.00842110621353897
0.00855381168787331
0.0086868805835806
0.0088203283323819
0.00895416982873146
0.00908841943067273
0.00922309096059841
0.00935819770591939
0.00949375241964718
0.0101248511150458
0.0107392821113818
0.0113373165505045
0.0119192213665101
0.0124852593832715
0.0130356894092909
0.0135707663299239
0.0140907411970253
0.0145958613160619
0.0150863703307436
0.015441253487212
0.0157844878762226
0.0161162568938878
0.0164367415826117
0.0167461206841397
0.0170445706907992
0.0173322658949716
0.0176093784368295
0.0178760783503782
0.018132533607837
0.0185230154598751
0.018900628444059
0.0192655937180968
0.0196181293589285
0.0199584504229605
0.0202867690043813
0.0206032942916065
0.0209082326218941
0.0212017875341755
0.0214841598201448
0.0215979137489014
0.0217041100623096
0.0218028769292912
0.021894341250795
0.0219786286769868
0.0220558636234657
0.022126169286536
0.0221896676575652
0.0222464795364575
0.0222967245442717
0.0223814803950497
0.0224590654670742
0.0225296127163955
0.0225932536271414
0.0226501182269996
0.0227003351018808
0.0227440314097921
0.0227813328939513
0.0228123638951699
0.0228372473635363
0.0228812441835931
0.0229188198894489
0.0229501036361765
0.0229752230224426
0.0229943041032229
0.0230074714018986
0.0230148479217626
0.0230165551569625
0.0230127131029078
0.0230034402661673
0.022934189254166
0.0228608606569488
0.0227835461426214
0.0227023363733112
0.0226173210039406
0.0225285886808187
0.0224362270400704
0.0223403227059232
0.0222409612888693
0.022138227383722
0.0220105540000854
0.0218801180966299
0.0217469923263172
0.0216112484953264
0.0214729575572919
0.0213321896076079
0.0211890138778117
0.0210434987300605
0.0208957116517135
0.0207457192500327
0.0206586621903432
0.0205681963329507
0.0204744123120298
0.0203773993287336
0.0202772451573229
0.0201740361512675
0.0200678572493321
0.0199587919816628
0.0198469224758848
0.0197323294632246
0.0196810287461244
0.0196258101310004
0.0195667772481194
0.0195040318161082
0.0194376736591703
0.0193678007241765
0.0192945090976401
0.0192178930225921
0.0191380449153676
0.0190550553823143
0.0189347790152781
0.0188122388688496
0.0186875061741401
0.0185606506990327
0.0184317407590562
0.0183008432283537
0.0181680235507524
0.0180333457509399
0.017896872445753
0.0177586648555823
0.017557778229488
0.0173565262023541
0.0171549408471642
0.0169530533871268
0.0167508941977263
0.0165484928091124
0.0163458779088244
0.0161430773448485
0.0159401181290071
0.015737026440675
0.0155656756859565
0.015393589455566
0.0152208045230577
0.0150473565867051
0.0148732802800309
0.0146986091825415
0.0145233758306621
0.0143476117288717
0.0141713473610355
0.0139946122019304
0.0139183512161889
0.0138396066333607
0.0137584463739933
0.0136749365707388
0.0135891415973382
0.0135011240974492
0.0134109450133186
0.0133186636143048
0.0132243375252485
0.0131280227546972
0.0130851621341838
0.013039284657162
0.0129904643748234
0.0129387733797203
0.0128842818423438
0.0128270580473772
0.0127671684296303
0.0127046776096572
0.0126396484290618
0.0125721419854923
0.0123799203494084
0.0121878456317088
0.0119959237314154
0.0118041599424947
0.0116125589673052
0.01142112493015
0.0112298613909278
0.0110387713588764
0.0108478573064023
0.0106571211829894
0.0103615158563115
0.0100682443272874
0.00977726396357874
0.00948853252687573
0.00920200816989677
0.00891764943377456
0.00863541524581465
0.00835526491761369
0.0080771581435247
0.00780105499945657
0.00761601162298729
0.00743106671967961
0.00724621805844279
0.00706146305808966
0.00687679880222184
0.00669222205408524
0.00650772927138999
0.00632331662108945
0.00613897999411273
0.00595471502004545
0.00579637490980439
0.00563756690385528
0.00547829654366682
0.00531856895561325
0.00515838886955347
0.00499776063724247
0.00483668825057175
0.0046751753596357
0.00451322529062067
0.00435084106351345
0.00418517845628527
0.0040191452444357
0.00385274246576396
0.00368597094416373
0.00351883130591794
0.00335132399580473
0.00318344929301163
0.00301520732685496
0.00284659809230175
0.00267762146529123
0.00199365179023079
0.00132685435099967
0.000676960749856768
4.37063642764837e-05
-0.000573169739282306
-0.00117392488914043
-0.00175881288974395
-0.00232808410063851
-0.00288198551311974
-0.00342076082460614
-0.00384436222591864
-0.00425537122292024
-0.00465398091129741
-0.00504038219013995
-0.00541476380917885
-0.00577731241434592
-0.00612821259169187
-0.00646764690969972
-0.00679579596002987
-0.00711283839673289
-0.00752607264848971
-0.00792635595057942
-0.00831390531243317
-0.00868893507048283
-0.00905165693779554
-0.00940228005203569
-0.00974101102179544
-0.0100680539713343
-0.0103836105837684
-0.0106878801427486
-0.01081480278852
-0.0109342381520897
-0.011046310345785
-0.0111511425969708
-0.0112488572555162
-0.0113395758005253
-0.0114234188463572
-0.0115005061479624
-0.0115709566055588
-0.011634888268675
-0.0118210282055312
-0.0119982464221345
-0.0121667111976938
-0.012326588917374
-0.0124780440946087
-0.0126212393925046
-0.0127563356443662
-0.0128834918733753
-0.0130028653114533
-0.0131146114173388
-0.0131534366687861
-0.0131862819143284
-0.0132132705438411
-0.0132345247752595
-0.0132501656584431
-0.0132603130786422
-0.0132650857595872
-0.013264601266225
-0.0132589760071228
-0.0132483252365613
-0.0133079731350423
-0.0133612807776564
-0.0134083908212678
-0.0134494441579539
-0.013484579928176
-0.0135139355335134
-0.0135376466489848
-0.0135558472349774
-0.0135686695488093
-0.0135762441559445
-0.0135261714942843
-0.0134721840510305
-0.0134143858299168
-0.0133528796149944
-0.0132877669718168
-0.0132191482485705
-0.0131471225771647
-0.0130717878742961
-0.0129932408425011
-0.0129115769712088
-0.0129143616117736
-0.0129124236107709
-0.0129058907106954
-0.0128948887287706
-0.0128795415725219
-0.012859971255133
-0.0128362979106038
-0.0128086398087226
-0.0127771133698685
-0.0127418331796582
-0.0126397855107193
-0.0125355019003393
-0.0124290656181062
-0.0123205586733237
-0.0122100618187286
-0.0120976545543342
-0.0119834151314035
-0.0118674205565608
-0.0117497465960448
-0.0116304677801101
-0.0114998104502716
-0.0113678954973155
-0.0112347897316859
-0.0111005588276874
-0.010965267327076
-0.0108289786428509
-0.0106917550632516
-0.0105536577559612
-0.0104147467725166
-0.0102750810529274
-0.0100894799680594
-0.00990416609473421
-0.00971917650865561
-0.00953454756519486
-0.00935031489764075
-0.0091665134158053
-0.00898317730498083
-0.00880034002524409
-0.00861803431110324
-0.00843629217148263
-0.00827703222278606
-0.00811794900376756
-0.00795908132931001
-0.00780046711261451
-0.00764214337038649
-0.00748414622825722
-0.00732651092643664
-0.00716927182559331
-0.00701246241295716
-0.00685611530864082
-0.0068471767260706
-0.00683575138940825
-0.0068219296305619
-0.00680579973806094
-0.00678744798847769
-0.0067669586775617
-0.00674441415109289
-0.00671989483546024
-0.00669347926797272
-0.0066652441269101
-0.00664086635021291
-0.00661470205625292
-0.00658682482236254
-0.00655730643872407
-0.00652621693817884
-0.00649362462582429
-0.00645959610841664
-0.00642419632359998
-0.00638748856898598
-0.00634953453111258
-0.00625564640176301
-0.0061617529696931
-0.00606788880042332
-0.00597408741231835
-0.00588038129659528
-0.00578680193769439
-0.00569337983409312
-0.00560014451965652
-0.00550712458563337
-0.00541434770342414
-0.00508980898078654
-0.00477032260874661
-0.00445581845253315
-0.00414622746057197
-0.00384148165575726
-0.00354151412951016
-0.00324625903892725
-0.00295565160736119
-0.00266962812881845
-0.00238812597660464
-0.00228190973155268
-0.00217659094243781
-0.00207218040540826
-0.00196868868379555
-0.0018661261742443
-0.0017645031802224
-0.00166382999373776
-0.00156411698614545
-0.00146537470898307
-0.00136761400582337
-0.00126284983509805
-0.00115925423352282
-0.00105683643723568
-0.000955606618702209
-0.000855576068464087
-0.000756757394483559
-0.000659164740155937
-0.000562814022005315
-0.000467723187996133
-0.000373912497281467
-0.000327229371564146
-0.00028093567363105
-0.000235079298072269
-0.000189711419215613
-0.00014488689155162
-0.00010066467202011
-5.7108263144683e-05
-1.42861755626341e-05
2.77275919873653e-05
6.88530576879838e-05
0.000144603523289056
0.000218555947340096
0.000290623933519606
0.000360712751184606
0.000428718829641597
0.000494529265348754
0.000558021349148795
0.000619062121333114
0.000677507963015366
0.000733204232932338
0.000830044537470245
0.000922888537904432
0.001011565025334
0.00109589061020566
0.00117566974785849
0.00125069487323463
0.00132074665585213
0.00138559438584648
0.00144499650140601
0.00149870126723788
0.00158613245728677
0.00166652229259027
0.00173961050359037
0.00180513070261855
0.00186281192898448
0.0019123803758622
0.00195356129755725
0.00198608109331832
0.00200966956127561
0.00202406231337279
0.00187876736170504
0.00172685556808765
0.00156803425314608
0.00140202876966446
0.00122858546111565
0.00104747466717744
0.000858493747706595
0.000661470094400607
0.000456264097426076
0.000242772032683328
0.000161767586066238
6.95010423292956e-05
-3.39498924421478e-05
-0.000148462744699156
-0.000273868301459793
-0.000409948933229052
-0.00055643724436052
-0.00071301508100451
-0.000879312923831882
-0.00105490968924205
-0.00133307513520978
-0.00161762230228677
-0.00190801703391008
-0.00220367645698319
-0.00250397104291079
-0.00280822712196672
-0.00311572983963542
-0.00342572653785721
-0.00373743053847586
-0.00405002530072752
-0.00435571460914843
-0.00466073286750611
-0.00496419925050678
-0.00526522276049674
-0.00556290766380284
-0.00585635903820219
-0.00614468837709362
-0.00642701919471643
-0.00670249257629569
-0.0069702726172998
-0.00716278676230692
-0.00734739433708922
-0.00752333179421683
-0.00768987872873057
-0.00784636197826812
-0.00799215932542684
-0.00812670276850243
-0.00824948133207838
-0.00836004339459373
-0.00845799851589033
-0.00851497650134219
-0.00855932982218646
-0.00859084591400688
-0.0086093758033398
-0.00861483338434481
-0.00860719421706083
-0.00858649386948325
-0.00855282582997828
-0.00850633902028624
-0.00844723494251064
-0.00843667815031016
-0.00841280308838497
-0.00837597376138961
-0.00832659192538895
-0.00826509298083658
-0.00819194172958958
-0.00810762803326165
-0.00801266240830051
-0.00790757159074442
-0.00779289410072286
-0.00757441064397821
-0.00734937799540418
-0.00711830491315372
-0.00688169545101473
-0.00664004483181596
-0.00639383542305733
-0.00614353281731999
-0.0058895820159089
-0.00563240371025139
-0.00537239065188785
-0.00521752511830897
-0.00505830614286126
-0.00489506571007335
-0.00472809305532746
-0.00455763125380529
-0.00438387378659244
-0.00420696106077948
-0.00402697686068286
-0.00384394470827974
-0.00365782411263453
-0.00347474332717281
-0.00328815756657841
-0.00309781299888395
-0.00290337531146138
-0.00270442521370812
-0.00250045378413558
-0.00229085767405537
-0.00207493418748273
-0.00185187626488201
-0.00162076740689653
-0.00126377001190032
-0.000898934557837781
-0.000524937979187761
-0.000140328864253863
0.00025647707626888
0.000667201188640588
0.00109370560234069
0.00153799639400293
0.00200222607232624
0.00248869526083337
0.00286991672003001
0.00328108891394969
0.00372490363209242
0.00420419794039261
0.00472194985852745
0.00528127244602132
0.00588540617557839
0.00653770948131726
0.00724164738152361
0.00800077809024916
0.00892461879235706
0.00990881376830413
0.0109571429182963
0.0120734037627893
0.0132613874385645
0.0145248526302443
0.0158674975277437
0.0172929299334466
0.0188046356771833
0.0204059455318901
0.0220355234593453
0.0237620852175896
0.0255882600758353
0.02751638050191
0.029548445647015
0.0316860851760078
0.0339305238448436
0.036282547244101
0.0387424691398541
0.0413101008500196
0.0439267828012782
0.0466503679390001
0.0494789796269461
0.0524101457785363
0.0554407847826144
0.0585671958875685
0.0617850543516703
0.0650894116229723
0.0684747007618986
0.0719347472643576
0.075521412951365
0.079167533262769
0.0828652550859889
0.0866062155575859
0.0903815800680543
0.0941820852656741
0.097998086756775
0.10181961113559
0.105636411916345
0.109438028884405
0.113094117373115
0.116716166199942
0.120293406885135
0.12381511852031
0.127270695437677
0.13064971460135
0.133942002047676
0.137137697709302
0.140227317974719
0.143201815360895
0.146061107946429
0.148788538142496
0.151376690936523
0.153818786115269
0.156108715635559
0.158241075347423
0.160211190826429
0.162015137143551
0.163649752473628
0.165112645516129
0.166366507884471
0.167446907640476
0.168353734152932
0.169087617335033
0.169649906128653
0.170042642032091
0.170268528066029
0.170330893610368
0.17023365557548
0.169981276394935
0.169625749738066
0.169124498362071
0.168483364331637
0.167708545192381
0.166806543702252
0.165784117401607
0.164648228480387
0.163405994373792
0.162064639486883
0.160631448414345
0.159219444488875
0.157728009110725
0.1561643897973
0.154535727225033
0.152849020100227
0.151111092910435
0.149328566650323
0.147507832579761
0.145655029037773
0.143776021304273
0.141825451185216
0.139860566820399
0.137886302354851
0.135907268100771
0.133927744595467
0.131951679152278
0.129982684755151
0.128024041138921
0.126078697891247
0.124149279408361
0.12227741920085
0.120424978840038
0.118593669017234
0.11678490989714
0.114999842837746
0.113239342982396
0.111504032577556
0.109794294877047
0.108110288501465
0.106451962129673
0.104899893050307
0.103371174380585
0.101865247936345
0.100381404855432
0.0989188004182917
0.0974764686432409
0.0960533365934911
0.0946482383410956
0.0932599285408894
0.0918870955750617
0.0903414504057938
0.0888123421779261
0.0872982579018308
0.085797667590769
0.0843090348788462
0.0828308271130625
0.081361524922285
0.0798996312699974
0.0784436800010976
0.0769922438957803
0.0756471919063876
0.0743018306850621
0.0729549358058389
0.0716053485378021
0.0702519816955326
0.0688938250938581
0.0675299506198978
0.0661595169327289
0.0647817737978023
0.0633960660595708
0.0619889971622242
0.0605732158814967
0.0591483672142824
0.0577142035372027
0.0562705866714845
0.054817489516388
0.0533549972246379
0.0518833078898303
0.0504027327128676
0.0489136956122248
0.0473283383134566
0.0457375125845084
0.0441419357790166
0.0425424308343544
0.0409399225378368
0.0393354330264357
0.0377300764939034
0.0361250530843617
0.0345216419574534
0.0329211935170022
0.0314671076944537
0.0300159531227857
0.0285692972392471
0.0271287382275099
0.0256958932499385
0.0242723859703937
0.0228598334207672
0.0214598322735046
0.0200739445911052
0.0187036831318826
0.0171742503634188
0.0156668739750642
0.0141827552503475
0.0127229862408527
0.0112885342607555
0.00988022655184061
0.00849873523704941
0.00714456268292304
0.00581802739282755
0.00451925055360527
0.00325586313625019
0.00201967652858525
0.000810150784892808
-0.000373496259154985
-0.00153229735315486
-0.00266754283061568
-0.00378078612933949
-0.00487384772718806
-0.00594881739128854
-0.00700805464368371
-0.00798064186124712
-0.0089445250515481
-0.00990282645342942
-0.0108589209594005
-0.011816426416294
-0.0127791917040715
-0.013751282552236
-0.0147369650657697
-0.0157406869464254
-0.0167670564106326
-0.017774692192005
-0.0188155234071089
-0.0198944717544345
-0.0210165131190143
-0.0221866456384272
-0.0234098558875798
-0.0246910833357427
-0.0260351832562361
-0.0274468882966954
-0.028930768945641
-0.0305547952623957
-0.0322581858072192
-0.0340448065583603
-0.0359181973080815
-0.037881531091478
-0.03993757446592
-0.0420886490386246
-0.0443365946518039
-0.0466827346423354
-0.0491278435954927
-0.0516362651447297
-0.0542441795290181
-0.0569505380280771
-0.0597536475926349
-0.0626511570554822
-0.0656400480898975
-0.0687166311905057
-0.0718765469071125
-0.0751147725122655
-0.0784256342287462
-0.0817880173824137
-0.085210116552707
-0.0886844283413797
-0.0922029033383332
-0.095756985888056
-0.0993376588557919
-0.102935493070943
-0.106540701063143
-0.110143194648038
-0.113732645866065
-0.117154477225883
-0.120545101672387
-0.123893803561426
-0.127189894464026
-0.130422781956369
-0.133582038025888
-0.136657466419829
-0.139639168272027
-0.142517605362008
-0.14528366038783
-0.148028430767141
-0.150642025342208
-0.153116953783761
-0.155446346129485
-0.157623990371345
-0.15964436434226
-0.161502661670024
-0.163194811638669
-0.164717492870865
-0.166068140818145
-0.167261934102858
-0.168280486724684
-0.169123495905799
-0.169791385796098
-0.170285286223376
-0.170607006567347
-0.170759005166197
-0.170744354701823
-0.170566704040078
-0.170230237024993
-0.169763184495826
-0.169146628384843
-0.168386097189379
-0.167487469261089
-0.166456924130031
-0.165300893840783
-0.164026014758687
-0.162639080274786
-0.161146994804329
-0.15955672943673
-0.157946302420204
-0.156250214472823
-0.15447542078118
-0.152628787473472
-0.150717059468116
-0.148746831247762
-0.146724520624422
-0.144656345522956
-0.14254830377403
-0.140406155874344
-0.13822573803094
-0.13602216673114
-0.133800411490373
-0.131565163450168
-0.129320831399198
-0.127071539992234
-0.124821129985224
-0.122573160298421
-0.120330911716363
-0.118097392033196
-0.115759279877378
-0.113437499183533
-0.11113423367744
-0.108851426380216
-0.106590789248137
-0.104353813231631
-0.102141778618259
-0.0999557655375799
-0.0977966645192857
-0.0956651870096649
-0.0938136217640167
-0.0919854462922575
-0.0901809996165052
-0.0884004798383215
-0.0866439535337161
-0.0849113648114361
-0.0832025440260398
-0.0815172161466031
-0.0798550087902428
-0.0782154599369195
-0.0763831987283028
-0.0745768363961793
-0.0727955973450389
-0.0710386462967804
-0.0693050948013961
-0.0675940076196148
-0.0659044090141909
-0.0642352889852174
-0.0625856094826036
-0.0609543106257546
-0.0592919734186216
-0.0576468477077955
-0.0560178260413596
-0.0544038049331119
-0.0528036914007049
-0.05121640958718
-0.0496409074566359
-0.0480761635478326
-0.0465211937625922
-0.0449750581590519
-0.0435639920342671
-0.0421574336160541
-0.0407546678094226
-0.0393550490360818
-0.0379580074098179
-0.0365630546162811
-0.0351697894333403
-0.0337779028265925
-0.032387182554126
-0.0309975172152809
-0.0295744171441748
-0.0281531716540415
-0.0267339755210819
-0.0253171340631855
-0.023903063528607
-0.022492290615984
-0.0210854510970392
-0.0196832875225705
-0.0182866460023009
-0.0168964720596996
-0.0155794018038589
-0.0142696225771737
-0.0129683711825781
-0.0116769578775173
-0.0103967580187979
-0.00912920302076331
-0.00787577070315208
-0.00663797511377517
-0.00541735591890976
-0.00421546746091433
-0.00288428652781586
-0.00157801063677721
-0.000298109403882628
0.000953976603580052
0.00217684686881056
0.00336915160125404
0.00452960198057138
0.00565697986807182
0.00675014689134378
0.00780805281557953
0.00892114535757603
0.00999529647266144
0.0110297998287465
0.012024061436304
0.0129776035138645
0.0138900673370018
0.0147612150615681
0.0155909305240899
0.0163792190340866
0.01712620618446
0.0177351876587649
0.0183054577955589
0.0188374469194577
0.0193316927369476
0.0197888349597366
0.0202096092975472
0.0205948409013907
0.0209454373415895
0.0212623812067759
0.0215467224108323
0.021667179577526
0.0217600181643329
0.0218263879541826
0.0218674751468582
0.0218844944342172
0.0218786812591511
0.0218512843213466
0.0218035583865528
0.0217367574493208
0.0216521282921896
0.0215743172926274
0.0214806464693721
0.0213723163887611
0.0212504990249189
0.021116333701776
0.0209709235426301
0.0208153324234346
0.0206505824206895
0.0204776517400173
0.020297473107272
0.0201305990307274
0.0199577985983229
0.0197798707918212
0.0195975666628344
0.0194115896596051
0.0192225962505153
0.0190311968123457
0.0188379567513738
0.0186433978258572
0.0184479996392714
0.0182958580454963
0.0181428216261098
0.0179892716638856
0.017835554041771
0.0176819811853835
0.0175288340236782
0.0173763639490159
0.0172247947599163
0.0170743245718183
0.0169251276831557
0.0166712289434528
0.0164210634262221
0.0161747010380101
0.0159321955667425
0.0156935861804291
0.015458898842125
0.0152281476395872
0.0150013360291544
0.0147784579943229
0.0145594991203136
0.014676391300435
0.0147886295292918
0.0148963640070957
0.014999736345691
0.0150988803354619
0.0151939226453566
0.0152849834600502
0.0153721770583188
0.0154556123366934
0.0155353932824093
0.0156055453764538
0.0156723625628114
0.0157359339976161
0.0157963454386416
0.0158536795197024
0.0159080159955843
0.015959431960391
0.0160080020419904
0.0160537985750427
0.0160968917548914
0.0161360375922401
0.0161726414809316
0.0162067674222617
0.0162384777522442
0.0162678332273952
0.0162948931013385
0.0163197151933601
0.0163423559499123
0.0163628704999586
0.0163813127049428
0.0163257591955854
0.0162697129375996
0.0162131947169645
0.0161562248005907
0.0160988229564451
0.0160410084715887
0.0159828001684244
0.0159242164194146
0.0158652751604863
0.0158059939033157
0.0157918341041298
0.0157764364982223
0.0157598360332851
0.0157420669012553
0.0157231625544302
0.0157031557209826
0.0156820784199389
0.0156599619756734
0.0156368370319642
0.0156127335656475
0.0155581576144308
0.015503266369864
0.0154480757741252
0.0153926013955268
0.0153368584357313
0.0152808617367988
0.0152246257880778
0.0151681647329469
0.0151114923754175
0.0150546221866019
0.0150216282871976
0.0149879692783234
0.0149536675412079
0.0149187449516997
0.0148832228900854
0.0148471222507219
0.0148104634514863
0.0147732664430489
0.0147355507179722
0.01469733531964
0.0145961415767784
0.0144957661209646
0.0143962010598576
0.0142974385980575
0.0141994710349977
0.0141022907628913
0.0140058902647318
0.0139102621123458
0.0138153989644972
0.0137212935650411
0.0135805787899436
0.0134415783720668
0.0133042658700659
0.0131686153087968
0.0130346011699453
0.0129021983828546
0.0127713823155484
0.0126421287659439
0.0125144139532524
0.0123882145095618
0.0123963619427993
0.0124032557152897
0.0124089281538744
0.0124134108779022
0.0124167348134382
0.0124189302071993
0.0124200266402194
0.0124200530412523
0.0124190376999152
0.0124170082795789
0.0123075731268559
0.012199358963351
0.0120923479892555
0.0119865226995075
0.0118818658780504
0.0117783605922138
0.011675990187216
0.0115747382807836
0.0114745887578878
0.0113755257655924
0.0113832714165319
0.0113899050488358
0.0113954549459687
0.0113999487676746
0.0114034135626804
0.0114058757811519
0.0114073612869081
0.0114078953693972
0.0114075027554396
0.0114062076207426
0.0114667798111206
0.0115252099344452
0.011581546322201
0.0116358362845491
0.0116881261310445
0.0117384611909438
0.0117868858331122
0.011833443485538
0.0118781766544607
0.0119211269431229
0.0118533450085458
0.0117860950467749
0.011719371346656
0.0116531682583491
0.0115874801924412
0.0115223016190821
0.0114576270671405
0.0113934511233815
0.0113297684316636
0.0112665736921559
0.0111408408742022
0.0110168774928039
0.0108946525576543
0.0107741356481302
0.0106552969022736
0.0105381070059968
0.0104225371825058
0.0103085591819385
0.010196145271212
0.0100852682240756
0.0101650014598613
0.0102423420594293
0.0103173418395287
0.0103900515366559
0.0104605208290565
0.0105287983582876
0.0105949317503512
0.0106589676364059
0.0107209516730664
0.0107809285622969
0.010839371251794
0.0108958846132875
0.0109505107763046
0.0110032909878929
0.0110542656306784
0.0111034742405622
0.0111509555240647
0.011196747375322
0.0112408868927445
0.0112834103953407
0.0112429671031316
0.0112026465691214
0.0111624494792878
0.0111223764690922
0.0110824281249009
0.0110426049853783
0.0110029075428519
0.0109633362446493
0.0109238914944085
0.0108845736533607
0.0107342643506256
0.0105863604763746
0.0104408166845239
0.0102975885018358
0.010156632310869
0.010017905333269
0.00988136561339165
0.00974697200225312
0.00961468414179987
0.009484462449492
0.00948374929380179
0.00948241205937118
0.00948046570115228
0.00947792484652057
0.0094748038022199
0.00947111656116701
0.00946687680911838
0.00946209793120195
0.00945679301831656
0.00945097487340161
0.00916303042113307
0.00888208876171188
0.00860799834887033
0.00834061065598848
0.00807978011745049
0.00782536407115474
0.00757722270215428
0.0073352189874053
0.00709921864160091
0.00686909006406885
0.00664574136893276
0.0064279878273561
0.00621570600974913
0.00600877496046739
0.00580707614988619
0.00561049342741354
0.00541891297542284
0.00523222326408688
0.00505031500709497
0.00487308111823554
0.00471281986948021
0.00455677098324877
0.00440483881005505
0.00425692963353867
0.00411295163315423
0.00397281484758652
0.00383643113887701
0.00370371415724774
0.00357457930660834
0.00344894371073282
0.00340212500548346
0.00335709916377389
0.00331381920563777
0.00327223912438226
0.00323231386827127
0.003193999322555
0.00315725229183874
0.00312203048278444
0.00308829248713829
0.00305599776507782
0.00304492931515482
0.00303481923686511
0.00302563763131653
0.00301735524210371
0.00300994344340866
0.00300337422831962
0.00299762019736427
0.00299265454725304
0.00298845105982823
0.00298498409121506
0.00291066496520304
0.00283849979531646
0.00276843523772765
0.0027004190677467
0.00263440015819908
0.00257032845821754
0.00250815497243956
0.00244783174060268
0.0023893118175298
0.00233254925349673
0.00228335602419976
0.00223571109747459
0.00218957379874289
0.00214490432603889
0.00210166373313822
0.00205981391300669
0.00201931758156318
0.00198013826175013
0.0019422402679058
0.00190558869043254
0.00197184345147246
0.00203719236246936
0.00210164447389099
0.00216520872062329
0.00222789392469537
0.00228970879793429
0.00235066194455093
0.00241076186365867
0.00247001695172636
0.00252843550496682
0.0025527444930024
0.00257691550806897
0.00260094290537067
0.00262482122146355
0.00264854517089091
0.00267210964287165
0.00269550969804088
0.00271874056524162
0.00274179763836706
0.00276467647325227
0.0027301343623258
0.00269657897884875
0.00266398286369036
0.00263231917665333
0.00260156168422308
0.00257168474754953
0.00254266331065679
0.00251447288887648
0.00248708955750019
0.00246048994064712
0.00252129589216083
0.00258106420426666
0.00263980862969719
0.00269754271768572
0.002754279818045
0.00281003308515331
0.00286481548185022
0.00291863978324369
0.00297151858043078
0.00302346428413359
0.00298769824527952
0.00295280260946538
0.00291875366047285
0.00288552822650655
0.00285310366921378
0.00282145787291462
0.00279056923403835
0.00276041665076242
0.00273097951284963
0.0027022376916803
0.00260611323235183
0.00251204042492299
0.00241997260612451
0.00232986411389685
0.00224167026719032
0.00215534734616153
0.00207085257275843
0.00198814409168654
0.0019071809517486
0.00182792308755056
0.00163912325867903
0.00145423091152989
0.00127316290771784
0.00109583783611553
0.000922175978065277
0.000752099273280531
0.000585531286423344
0.000422397174344718
0.00026262365397439
0.000106138970847563
0.000265189936439105
0.000420988233161888
0.000573594640853669
0.000723068789419721
0.000869469181530622
0.00101285321486127
0.00115327720388059
0.00129079640120106
0.00142546501849689
0.00155733624699969
0.00141564804570648
0.00127681751402011
0.00114078379652106
0.0010074873140114
0.000876869737651926
0.000748873963613178
0.000623444088230134
0.000500525383650896
0.000380064273969263
0.000262008311831911
0.00017901516658607
9.76550380103012e-05
1.78921478511774e-05
-6.03085105829546e-05
-0.000136981188220192
-0.000212159395709503
-0.000285875918597698
-0.00035816283220471
-0.000429051516203425
-0.000498572668909527
-0.000456193204557106
-0.000414772147061566
-0.000374292873988713
-0.000334739041747432
-0.000296094580398853
-0.000258343688570668
-0.000221470828474378
-0.000185460721023269
-0.000150298341049106
-0.000115968912615506
6.59899247167282e-06
0.000126537113400402
0.000243896042061997
0.000358725409306639
0.00047107390376745
0.000580989290307419
0.000688518428096837
0.000793707288328586
0.000896600971578657
0.000997243724818933
0.000886781763717373
0.000778437238033409
0.000672166230503309
0.000567925746432071
0.000465673694842847
0.000365368870003007
0.000266970933319091
0.000170440395593452
7.57385996350209e-05
-1.7172296782819e-05
-3.1938862604817e-05
-4.65538299527266e-05
-6.10213551035724e-05
-7.53454700617822e-05
-8.95300854531534e-05
-0.00010357899336277
-0.00011749587011805
-0.000131284279018558
-0.000144947673013751
-0.000158489397330253
-0.000156173401092543
-0.000154064766190726
-0.000152160072764262
-0.000150455932212392
-0.000148948987012184
-0.000147635910546793
-0.000146513406944563
-0.000145578210929631
-0.000144827087684865
-0.000144256832727986
-4.96846073109891e-05
4.27823970460865e-05
0.000133185932549387
0.000221566949813245
0.000307965613331679
0.000392421316620413
0.00047497269703379
0.000555657650260524
0.000634513344502428
0.000711576234339241
0.00071379343229198
0.000715786955916951
0.000717561213692246
0.000719120551658462
0.000720469253780561
0.000721611542249243
0.000722551577718034
0.000723293459471725
0.000723841225521743
0.000724198852623443
0.000646126292112356
0.000569475353364321
0.000494217728252291
0.000420325687609149
0.000347772067946182
0.000276530258311155
0.000206574187272564
0.000137878310016306
7.04175955404111e-05
4.16751393308502e-06
-0.000106441138099863
-0.000214953094351986
-0.000321410142548682
-0.000425853246552844
-0.000528322566375465
-0.00062885747805512
-0.000727496593428358
-0.000824277779814033
-0.000919238179634812
-0.00101241423000023
-0.00100942603070229
-0.00100665982737808
-0.00100411132373799
-0.00100177637016521
-0.000999650968023078
-0.000997731274392609
-0.000996013607263299
-0.000994494451200351
-0.000993170463513116
-0.000992038480949205
-0.00105757054550642
-0.00112192612712359
-0.0011851299187048
-0.00124720628053002
-0.00130817926086526
-0.00136807261704212
-0.00142690983703865
-0.00148471416159409
-0.00154150860688931
-0.00159731598782506
-0.00154832695869061
-0.00150052452990886
-0.00145388846055938
-0.00140839925882468
-0.00136403819169818
-0.00132078729580425
-0.00127862938934814
-0.00123754808521134
-0.00119752780520632
-0.00115855379550159
-0.00115047731910011
-0.00114280791369536
-0.00113554565537286
-0.00112869127342457
-0.00112224617658407
-0.00111621248033436
-0.00111059303527583
-0.00110539145653666
-0.00110061215420254
-0.00109626036473647
-0.00112653736896215
-0.00115655397156508
-0.00118633211490067
-0.00121589442231686
-0.00124526423945738
-0.00127446567612321
-0.00130352364861326
-0.00133246392245676
-0.00136131315544051
-0.00139009894082454
-0.00138051096102658
-0.00137170364203335
-0.00136369191399729
-0.00135649212892538
-0.00135012209661355
-0.00134460112004665
-0.0013399500300834
-0.00133619121923592
-0.00133334867434266
-0.00133144800792345
-0.00133669326986574
-0.00134281000661824
-0.00134983141341026
-0.00135779236822635
-0.00136672945408182
-0.00137668097849752
-0.00138768698990259
-0.00139978929068746
-0.00141303144662356
-0.00142745879236228
-0.00133725749046087
-0.00125050749081245
-0.00116721599362098
-0.00108739281220734
-0.00101105033716224
-0.00093820349516764
-0.000868869702193617
-0.000803068810784305
-0.000740823051153701
-0.000682156965822491
-0.000745931436707065
-0.000810905224634283
-0.000877158101339959
-0.000944770846280237
-0.00101382516486323
-0.0010844035985185
-0.00115658942646203
-0.00123046655903788
-0.00130611942254464
-0.00138363283548315
-0.00138386598964749
-0.00138775408938693
-0.0013953497979988
-0.00140670623908885
-0.00142187681710513
-0.00144091502986361
-0.00146387427324231
-0.00149080763826161
-0.00152176770081005
-0.00155680630431795
-0.00160341796439404
-0.00165405615902305
-0.00170877221904594
-0.00176761574959989
-0.00183063438481052
-0.00189787353813937
-0.00196937614899445
-0.00204518242625487
-0.00212532958940005
-0.00220985160797442
-0.00238835883778227
-0.00256946168996556
-0.00275321956717665
-0.00293968684532214
-0.0031289126315885
-0.00332094052560905
-0.00351580838472336
-0.00371354809429904
-0.00391418534410063
-0.00411773941170185
-0.00437269863705656
-0.00462959942832985
-0.00488846050011733
-0.00514929298183495
-0.00541210025933042
-0.00567687782935214
-0.00594361316783064
-0.00621228561290277
-0.0064828662635781
-0.00675531789491237
-0.0068124801441334
-0.00687586452510881
-0.0069453194357817
-0.00702068657048492
-0.00710180089348107
-0.00718849063390492
-0.00728057730258235
-0.00737787573112899
-0.00748019413365832
-0.00758733419135131
-0.00778899157582283
-0.00799321188545838
-0.00819981482328583
-0.00840861339194077
-0.00861941410816641
-0.00883201723963105
-0.00904621706371808
-0.00926180214785324
-0.00947855565084327
-0.00969625564461136
-0.00992091279144098
-0.0101459308322708
-0.0103710772606131
-0.0105961159075517
-0.0108208073542354
-0.0110449093592788
-0.0112681772998878
-0.0114903646254607
-0.0117112233223539
-0.0119305043884415
-0.0122854202793116
-0.0126354415555353
-0.0129803755683719
-0.0133200295214879
-0.0136542109948492
-0.0139827284688525
-0.014305391847099
-0.0146220129762039
-0.0149324061610366
-0.0152363886737906
-0.0153213835604221
-0.0154039673430219
-0.0154838820265628
-0.0155608762666737
-0.0156347057897652
-0.0157051337986017
-0.0157719313619375
-0.0158348777869006
-0.0158937609728662
-0.0159483777456375
-0.0160546688479035
-0.016155164445795
-0.0162497129661878
-0.0163381724212953
-0.016420410638585
-0.0164963054654287
-0.0165657449479103
-0.016628627483314
-0.0166848619459112
-0.0167343677857664
-0.0168417485672286
-0.0169409458149342
-0.0170319375601523
-0.0171147120033567
-0.0171892674879746
-0.0172556124473211
-0.0173137653251168
-0.0173637544700738
-0.0174056180051177
-0.0174394036718954
-0.0174004657250818
-0.0173548999100996
-0.0173027551109334
-0.0172440895067965
-0.0171789702946749
-0.0171074733926793
-0.0170296831252718
-0.0169456918914738
-0.0168555998171935
-0.0167595143928358
-0.0166286235738786
-0.016492567953175
-0.0163514629435556
-0.0162054299864531
-0.016054596129123
-0.0158990935944273
-0.01573905934435
-0.0155746346383981
-0.0154059645880093
-0.0152331977080578
-0.015195429386179
-0.0151510213398962
-0.0151001865930782
-0.0150431386321244
-0.0149800909806432
-0.0149112567763949
-0.0148368483512542
-0.014757076814887
-0.0146721516427728
-0.0145822802691367
-0.0144546367275847
-0.0143231312588326
-0.0141879492358201
-0.0140492726906118
-0.0139072799325694
-0.0137621451735046
-0.0136140381599005
-0.0134631238122264
-0.0133095618713025
-0.0131535065516173
-0.0129417637969573
-0.0127289116730336
-0.0125150639177673
-0.0123003278585302
-0.0120848040880113
-0.0118685861454811
-0.0116517602030102
-0.011434404756166
-0.0112165903186817
-0.0109983791205738
-0.0109272233717375
-0.0108527476257857
-0.0107750479482446
-0.0106942097292298
-0.0106103074146395
-0.0105234042369832
-0.0104335519453266
-0.0103407905338559
-0.0102451479685948
-0.0101466399118389
-0.00988271283466685
-0.00961924595328179
-0.00935614964657836
-0.00909332218938324
-0.00883064943402622
-0.00856800448864975
-0.00830524739222996
-0.00804222478636533
-0.00777876958397741
-0.00751470063516155
-0.00725078643774438
-0.00698583289403981
-0.00671961503344713
-0.00645189245784418
-0.00618240900051785
-0.0059108923858894
-0.00563705389104844
-0.00536058801023392
-0.00508117212352611
-0.00479846617114115
-0.00462145051392131
-0.00443816966752648
-0.00424827423500918
-0.0040513952693017
-0.00384714401880597
-0.00363511168926442
-0.00341486922419423
-0.00318596710628468
-0.0029479351822689
-0.00270028251388881
-0.00236701654653128
-0.00202463249903936
-0.0016725455195358
-0.00131015031007811
-0.000936821138252447
-0.000551911892652043
-0.000154756185377877
0.000255332495268508
0.000679060578710996
0.00111715414945
0.00161172660132669
0.00212132628392111
0.00264675302936422
0.00318882430642616
0.00374837463480135
0.00432625492432232
0.00492333173634441
0.00554048646468013
0.00617861443361863
0.00683862391074445
0.0074545120424766
0.00809550457320756
0.00876251433952552
0.00945646283054745
0.0101782787371757
0.0109288964075726
0.0117092542083984
0.0125202927917011
0.0133629532677121
0.0142381752841817
0.0152281645598945
0.0162509161254179
0.0173073861421446
0.0183985200529292
0.0195252502314955
0.0206884935508416
0.0218891488743705
0.0231280944739594
0.0244061853796635
0.0257242506662412
0.0269671109963761
0.0282538924245723
0.0295852817532821
0.030961929414923
0.0323844465182504
0.0338534018731282
0.0353693190021487
0.0369326731479712
0.0385438882856407
0.0402033341495171
0.0419548308792994
0.043754231422708
0.0456017431005643
0.0474975070942888
0.0494415957083096
0.0514340097107432
0.0534746757636445
0.0555634439541976
0.0577000854382499
0.0598842902075698
0.0622953937189025
0.0647495043461218
0.067246130333867
0.0697846898205019
0.0723645094198184
0.0749848229908143
0.0776447706053153
0.0803433977227666
0.083079654581011
0.0858523958113179
0.0886030374422547
0.0913887610356898
0.0942081109211649
0.0970595371369382
0.0999413962577549
0.102851952482144
0.105789378982249
0.1087517595183
0.111737090318878
0.114743282227151
0.117514816194055
0.120307980287437
0.123120340775283
0.125949391829231
0.128792558926729
0.131647202499804
0.134510621823456
0.13738005913564
0.140252703979842
0.143125697760231
0.146063499156469
0.148994426211268
0.151915532833226
0.154823844353566
0.157716362973118
0.160590073342928
0.163441948262682
0.166268954480472
0.169068058576898
0.171836232915969
0.174692606211125
0.177509531908651
0.180284085935911
0.183013373110697
0.185694533170892
0.188324746759028
0.190901241342796
0.193421297052721
0.195882252418388
0.198281509984906
0.20060158306801
0.202855283900323
0.205040233170834
0.207154136622439
0.20919478980746
0.211160082623676
0.213048003616606
0.214856644034626
0.21658420162442
0.218228984155217
0.219780827780701
0.221247030620943
0.222626245272297
0.223917245613936
0.225118928837986
0.226230317161592
0.227250559217109
0.228178931117796
0.229014837197555
0.229757810424473
0.230326075478033
0.230802528995663
0.231187055677577
0.231479667953135
0.231680504786667
0.231789830179804
0.231808031377778
0.231735616788138
0.231573213621226
0.231321565262636
0.231043979217236
0.230677691259689
0.23022380064676
0.229683509339782
0.229058118226631
0.228349023151565
0.227557710767484
0.226685754225513
0.225734808717066
0.224706606883808
0.223622542016786
0.222464497981911
0.22123441917955
0.21993430792971
0.218566219457967
0.217132256842131
0.215634565934637
0.214075330275332
0.212456766008994
0.21078111682148
0.209162208419109
0.207488478052766
0.205762267802089
0.203985926566277
0.202161805303079
0.200292252358602
0.19837960889792
0.196426204445767
0.194434352545918
0.192406346547156
0.190211713498979
0.187988157478398
0.185737832875873
0.183462859517426
0.181165319155562
0.178847252119807
0.176510654129898
0.174157473273963
0.171789607153464
0.169408900196028
0.166987823714327
0.164558026826458
0.16212116797184
0.159678843589702
0.157232586264533
0.154783863035342
0.152334073866474
0.149884550277454
0.147436554128957
0.144991276561782
0.142596622430813
0.140205894410082
0.137820085787295
0.135440115963074
0.133066830108955
0.130700998955943
0.12834331870968
0.125994411088266
0.123654823478848
0.121325029209137
0.118946437349503
0.116579574244688
0.114224669566074
0.111881881571872
0.109551297890563
0.107232936399344
0.104926746194866
0.102632608653727
0.100350338580461
0.0980796854409027
0.0957375170354068
0.0934079715799938
0.091090576775444
0.0887848014160625
0.0864900570129953
0.08420569949526
0.0819310309878291
0.0796653016662615
0.077407711687512
0.0751574131966661
0.0730498461077051
0.0709449443433981
0.0688417847431303
0.066739403801365
0.0646368000749719
0.0625329366656082
0.0604267437770213
0.0583171213470476
0.0562029417539503
0.0540830525965896
0.051855712609742
0.0496223570130259
0.0473817352160669
0.0451325845146637
0.0428736332084492
0.0406036037847416
0.0383212161661783
0.0360251910193584
0.0337142531213254
0.0313871347803175
0.0291174793164135
0.0268276091088103
0.0245163307923288
0.0221824720583885
0.0198248852904705
0.0174424512228681
0.0150340826159981
0.0125987279410935
0.0101353750666437
0.00764305493851431
0.00508867419832131
0.00250431837597296
-0.000110836202953488
-0.00275755600180129
-0.00543654675620966
-0.00814845002135673
-0.0108938397935673
-0.0136732192170002
-0.0164870173863142
-0.0193355862563487
-0.0223636585316994
-0.0254240008092993
-0.0285167755864137
-0.031642055968785
-0.0347998233061526
-0.0379899650007543
-0.041212272499445
-0.0444664394797919
-0.047752060240176
-0.0510686283035422
-0.0542873775412978
-0.0575383815561691
-0.0608207728607445
-0.0641335809697928
-0.0674757321784449
-0.0708460496010831
-0.0742432534763468
-0.0776659617428681
-0.0811126908895064
-0.0845818570829757
-0.0879335669204176
-0.0913070843809331
-0.0947004775261963
-0.0981117225377651
-0.101538706219456
-0.10497922877481
-0.108431006855648
-0.111891676876678
-0.115358798590083
-0.118829858912991
-0.122217418207166
-0.125605427538566
-0.128991145871505
-0.13237177769224
-0.135744477945789
-0.139106357162879
-0.142454486763352
-0.145785904521635
-0.149097620179091
-0.152386621187433
-0.155691472975499
-0.158966688998585
-0.162209242425137
-0.165416107740631
-0.168584266896366
-0.171710715483588
-0.174792468914227
-0.177826568589422
-0.180810088036968
-0.183740138998857
-0.186829177421073
-0.189854695850721
-0.192814044748085
-0.195704634504021
-0.198523941037661
-0.20126951123572
-0.203938968217012
-0.206530016406434
-0.209040446403356
-0.211468139630145
-0.213771314313152
-0.215988619997316
-0.218118219758243
-0.2201583839595
-0.222107493611303
-0.223964043442587
-0.225726644678878
-0.227394027519433
-0.228965043308236
-0.230438666394577
-0.231830923191301
-0.233123763860621
-0.234316546731117
-0.235408757289938
-0.236400008469317
-0.237290040620528
-0.238078721178816
-0.238766044023827
-0.239352128541082
-0.239837218391026
-0.240147879764841
-0.240359913171902
-0.240473894627102
-0.240490517338725
-0.240410589131946
-0.240235029637135
-0.23996486725492
-0.239601235910586
-0.239145371610826
-0.238598608816349
-0.238020316700236
-0.237352887262122
-0.236597950698861
-0.235757219116785
-0.234832482206049
-0.23382560281711
-0.232738512454135
-0.231573206700022
-0.230331740587645
-0.229016223931725
-0.227604956792044
-0.226124493423057
-0.224577070004956
-0.222964958908409
-0.221290464032271
-0.219555916182082
-0.217763668501192
-0.215916091965886
-0.214015570955278
-0.212064498906219
-0.210056809535422
-0.208003539796596
-0.205907081747285
-0.203769820224957
-0.201594129057392
-0.199382367406351
-0.197136876250288
-0.194859975011209
-0.192553958330115
-0.190221092994829
-0.187848960990472
-0.185454719245311
-0.183040528109901
-0.180608509490406
-0.178160744570788
-0.175699271697165
-0.173226084423969
-0.170743129720988
-0.168252306339899
-0.165755463338425
-0.163264245905623
-0.160770350891267
-0.158275474995219
-0.155781260763394
-0.153289295859188
-0.150801112473026
-0.148318186865652
-0.14584193904058
-0.143373732540886
-0.140914874365339
-0.13840391346108
-0.135906030849423
-0.133422338784632
-0.130953894243658
-0.128501699349344
-0.126066701880902
-0.123649795866113
-0.121251822249744
-0.118873569632713
-0.116515775076568
-0.114207811973309
-0.111921041868605
-0.109656064375737
-0.107413431099599
-0.105193646694628
-0.102997169957692
-0.100824414951401
-0.0986757521534709
-0.0965515096279538
-0.094451974214346
-0.0924310304427168
-0.0904341490452495
-0.0884615224507899
-0.0865133062864293
-0.0845896206118762
-0.0826905511518211
-0.0808161505237435
-0.0789664394588259
-0.0771414080138402
-0.0753410167720836
-0.0735054211019077
-0.0716955285394302
-0.069911193794862
-0.0681522472573508
-0.0664184961093678
-0.0647097254228445
-0.063025699236429
-0.0613661616133897
-0.0597308376798474
-0.0581194346431554
-0.0566595760831786
-0.0552203804363409
-0.0538015595514392
-0.052402810186312
-0.0510238149496162
-0.0496642432237485
-0.0483237520694798
-0.0470019871129391
-0.0456985834156349
-0.0444131663282558
-0.0429852510857515
-0.0415779563237844
-0.0401908250082125
-0.0388233943632733
-0.0374751966386231
-0.0361457598644601
-0.0348346085955655
-0.033541264645074
-0.0322652478087574
-0.0310060765805654
-0.0297795883359267
-0.0285686470572749
-0.027372778244337
-0.0261915087492453
-0.0250243674603992
-0.0238708859808158
-0.0227305993012593
-0.0216030464683556
-0.020487771247804
-0.0193843227827075
-0.0183003309163034
-0.0172271173024215
-0.0161642544284938
-0.0151113226746664
-0.0140679109458902
-0.0130336172971397
-0.0120080495510805
-0.0109908259074114
-0.00998157554300866
-0.00897993920191241
-0.00807853236613598
-0.00718215232467231
-0.00629051608393703
-0.00540335369199928
-0.00452040877565279
-0.0036414390595768
-0.00276621686612829
-0.00189452959426326
-0.0010261801760474
-0.000160987509189635
0.000506623901027653
0.00117538032140477
0.00184533279355532
0.0025165165291142
0.00318895058902575
0.00386263759689953
0.00453756348791159
0.00521369729467802
0.0058909909714661
0.00656937925803601
0.0074777271187937
0.00838229369066456
0.00928305559483423
0.0101799702367233
0.0110729759216932
0.0119619920153419
0.0128469191489316
0.0137276394703478
0.0146040169408393
0.0154758976776355
0.0164181432118591
0.0173539941497944
0.01828327637209
0.0192057991260939
0.0201213556058394
0.0210297235747474
0.0219306660299651
0.0228239319070845
0.0237092568238157
0.0245863638610214
0.0254278809657665
0.026261147248942
0.0270858421021277
0.027901636062176
0.0287081917451419
0.0295051648048468
0.0302922049134579
0.0310689567613557
0.0318350610734544
0.0325901556390539
0.0334154667658666
0.0342273664937791
0.0350255235474535
0.0358096072411431
0.0365792885433205
0.0373342411357789
0.0380741424639929
0.0387986747755439
0.0395075261434349
0.040200391471164
0.0407115655392874
0.0412095586181122
0.0416940240446635
0.0421646271190301
0.0426210459465027
0.0430629722448142
0.0434901121139889
0.0439021867664451
0.0442989332151496
0.0446801049177777
0.0450458269287738
0.0453955255204576
0.0457290070280372
0.0460460963303826
0.0463466372497408
0.046630492898953
0.0468975459754337
0.0471476990013701
0.0473808745098078
0.0475970151764858
0.0478529457448517
0.048090621847062
0.0483100701657743
0.0485113370496247
0.0486944883880634
0.0488596094350665
0.0490068045829267
0.0491361970874918
0.0492479287463806
0.0493421595318561
0.0494212321904991
0.0494831323775897
0.0495280728494545
0.0495562826357376
0.0495680064757167
0.0495635042219632
0.049543050213795
0.0495069326230381
0.0494554527746619
0.0493889244448977
0.0492578524042491
0.0491134152029299
0.0489559391346953
0.048785760372964
0.0486032241879129
0.0484086841570689
0.0482025013719661
0.0479850436433897
0.0477566847076688
0.0475178034364163
0.0473130584755936
0.0470976535578038
0.0468719964521798
0.046636496618996
0.046391564476983
0.0461376106865116
0.0458750454503799
0.0456042778338279
0.0453257151052779
0.0450397620991839
0.044693922076766
0.0443425761262113
0.0439860964942095
0.0436248511226145
0.0432592031295228
0.0428895103183033
0.0425161247150854
0.0421393921350968
0.0417596517781218
0.0413772358532401
0.0409985995731427
0.040617804145533
0.0402351613637509
0.0398509747713858
0.0394655394331081
0.0390791417335587
0.038692059203781
0.0383045603746047
0.0379169046563209
0.0375293422439193
0.0372631856817667
0.0369951129604592
0.0367253959748979
0.0364542962728974
0.0361820650953339
0.0359089434360689
0.0356351621206415
0.0353609419026984
0.0350864935771192
0.0348120181087829
0.034438525528292
0.0340674120347043
0.0336988093259728
0.0333328407329823
0.0329696213944717
0.0326092584416588
0.0322518511915637
0.0318974913480468
0.0315462632096059
0.0311982438830016
0.0309216725570812
0.0306470461026121
0.0303744493448999
0.0301039602542906
0.0298356501872703
0.029569584128278
0.0293058209315488
0.029044413562342
0.028785409336948
0.0285288501609062
0.0281235213465592
0.0277238067360449
0.0273296713539944
0.0269410769784584
0.026557982338238
0.0261803433063211
0.0258081130891081
0.0254412424111478
0.0250796796951335
0.0247233712369468
0.0245207960485852
0.024320317061779
0.0241219361279103
0.0239256524020059
0.0237314625151502
0.023539360740766
0.0233493391547429
0.0231613877894187
0.0229754947814327
0.0227916465134915
0.022469246899355
0.0221517419554344
0.0218390559186137
0.0215311129311292
0.021227837129988
0.020929152731297
0.0206349841096197
0.0203452558724889
0.0200598929302059
0.019778820561066
0.019560394628083
0.0193449133569429
0.0191323274492591
0.0189225877140151
0.0187156451217099
0.018511450854638
0.0183099563534655
0.018111113360256
0.0179148739581069
0.0177211906075469
0.0176646402369708
0.0176077923255944
0.0175506558853802
0.017493239319007
0.0174355504643755
0.0173775966363074
0.017319384665579
0.0172609209354292
0.0172022114156712
0.0171432616945409
0.0168910101850476
0.0166424864680712
0.0163976159498187
0.0161563253438348
0.0159185426616596
0.0156841972025292
0.0154532195422038
0.0152255415210021
0.0150010962311182
0.0147798180032933
0.0146349265201208
0.0144915721046919
0.0143497227834829
0.0142093471626355
0.0140704144243462
0.0139328943227206
0.0137967571791446
0.0136619738772191
0.0135285158573038
0.0133963551107136
0.0131838604641828
0.0129742815674153
0.0127675585481234
0.0125636327275802
0.0123624466002372
0.0121639438134594
0.0119680691473961
0.0117747684950058
0.0115839888422514
0.0113956782484795
0.0112533807666444
0.0111125579144329
0.0109731787409075
0.0108352129349533
0.0106986308138913
0.0105634033121924
0.0104295019703005
0.0102968989235715
0.0101655668913364
0.0100354791660931
0.0100034359892469
0.00997060045271509
0.00993698722899046
0.00990261072860268
0.00986748510588479
0.00983162426457268
0.00979504186324597
0.00975775132061724
0.00971976582067693
0.00968109831770016
0.00968983463872734
0.00969692870310212
0.0097024125271623
0.00970631752243609
0.0097086745079176
0.00970951372207737
0.00970886483461493
0.00970675695796027
0.00970321865853084
0.00969827796775032
0.00948448800931134
0.00927360335880675
0.00906556538809284
0.0088603166756457
0.00865780098248086
0.0084579632285474
0.0082607494695876
0.00806610687445354
0.00787398370287201
0.00768432928364923
0.00757027850384797
0.0074570979830572
0.00734477015548816
0.00723327784189441
0.00712260424184364
0.00701273292614119
0.00690364782940248
0.00679533324277148
0.00668777380678268
0.00658095450436359
0.00645313509504174
0.00632647215621899
0.00620094274426021
0.00607652440928143
0.0059531951852569
0.00583093358032248
0.0057097185672717
0.00558952957424043
0.00547034647557688
0.00535214958289269
0.00512338907012837
0.00489786302588272
0.00467550726511518
0.00445625891974917
0.00424005641230426
0.00402683943005474
0.00381654889970422
0.00360912696256555
0.00340451695023654
0.00320266336076094
0.00317362364751823
0.00314374548903285
0.0031130465344077
0.00308154411480219
0.00304925524975134
0.00301619665335774
0.00298238474035872
0.00294783563207129
0.00291256516221734
0.00287658888263151
0.00292253883879619
0.00296611963220857
0.00300737989649134
0.00304636732821783
0.00308312870560354
0.00311770990682306
0.00315015592795965
0.00318051090059509
0.00320881810904685
0.00323512000725961
0.00317185093859178
0.00310845498078766
0.00304493625291543
0.00298129882566956
0.00291754672228145
0.00285368391941096
0.00278971434801949
0.0027256418942246
0.00266147040013677
0.00259720366467874
0.00260719480999532
0.00261557403286716
0.00262237550995669
0.00262763276871457
0.002631378700298
0.00263364557223
0.00263446504080448
0.0026338681632426
0.00263188540960503
0.00262854667446529
0.00261471782670656
0.00259977895545696
0.00258375453714859
0.00256666859219798
0.00254854469405258
0.00252940597805556
0.00250927515013244
0.00248817449530334
0.00246612588602402
0.00244315079035956
0.00235475109870966
0.00226678931052698
0.00217925925849125
0.00209215493057111
0.00200547046683738
0.00191920015633959
0.00183333843404417
0.00174787987783301
0.00166281920556147
0.00157815127217443
0.00149892401381346
0.00141997601947283
0.00134130461164705
0.00126290719754454
0.00118478126730512
0.00110692439225246
0.00102933422318076
0.000952008488675023
0.0008749449934641
0.000798141616806075
0.00069163516533053
0.000585999007887691
0.000481218946093624
0.000377281095411491
0.000274171878779644
0.000171878020366544
7.03865394499134e-05
-3.03152555824962e-05
-0.00013023977311263
-0.00022939914405519
-0.000275900782207999
-0.000322724760215119
-0.000369861115723609
-0.000417300056086471
-0.000465031955070985
-0.000513047349633253
-0.000561336936758255
-0.000609891570363471
-0.000658702258265287
-0.000707760159206645
-0.000758579594377615
-0.000809597779661396
-0.000860806934173352
-0.000912199404177405
-0.000963767660651982
-0.00101550429690522
-0.00106740202623851
-0.00111945367965753
-0.00117165220362947
-0.00122399065788598
-0.00130818859022733
-0.0013918625168466
-0.00147501884058481
-0.00155766380926631
-0.00163980351891394
-0.00172144391690041
-0.00180259080503724
-0.00188324984260241
-0.00196342654930825
-0.00204312630821047
-0.00211790092063191
-0.00219230024785697
-0.00226632745278433
-0.00233998560921392
-0.00241327770374944
-0.00248620663766344
-0.00255877522872582
-0.00263098621299614
-0.0027028422465807
-0.00277434590735507
-0.00287051032817302
-0.00296581458919254
-0.00306027130445366
-0.00315389281141516
-0.003246691176612
-0.00333867820120023
-0.0034298654263914
-0.00352026413877876
-0.00360988537555751
-0.00369873992964125
-0.0036186064007513
-0.00354117579578634
-0.00346638918569278
-0.00339418879490027
-0.00332451797838514
-0.00325732119919299
-0.00319254400641162
-0.00313013301358465
-0.00307003587755781
-0.00301220127774853
-0.00313330638580968
-0.00325295148469527
-0.00337116070545525
-0.00348795767495886
-0.00360336552611425
-0.00371740690788415
-0.00383010399510164
-0.00394147849808998
-0.00405155167209063
-0.00416034432650303
-0.00427672702471366
-0.00439168809286346
-0.00450525068731694
-0.00461743748124037
-0.00472827067440586
-0.00483777200279984
-0.00494596274803965
-0.00505286374660236
-0.00515849539886925
-0.00526287767798986
-0.00525125096501323
-0.00524076653654318
-0.00523139604618315
-0.00522311169439448
-0.00521588621770473
-0.00520969287813244
-0.00520450545282337
-0.00520029822389477
-0.00519704596848311
-0.00519472394899096
-0.00528564437553265
-0.00537555409461569
-0.00546446764980367
-0.00555239927633227
-0.005639362907424
-0.00572537218047688
-0.00581044044312971
-0.00589458075920632
-0.00597780591454127
-0.00606012842268938
-0.00606628118370071
-0.00607309874711098
-0.00608056195867345
-0.00608865203033501
-0.00609735053306449
-0.00610663938982472
-0.00611650086868552
-0.00612691757607464
-0.00613787245016401
-0.00614934875438863
-0.00602285242729807
-0.00589968378182661
-0.00577977020778331
-0.00566304053011425
-0.00554942498035663
-0.00543885516866422
-0.00533126405639255
-0.00522658592923276
-0.00512475637088296
-0.00502571223724654
-0.00506329189015262
-0.00510078945726331
-0.0051382003952964
-0.00517552023800563
-0.00521274459479803
-0.00524986914937912
-0.00528688965842551
-0.00532380195028422
-0.0053606019236982
-0.00539728554655756
-0.00563004817090489
-0.00585866452199668
-0.00608321126061878
-0.00630376350452623
-0.00652039485946145
-0.00673317744955223
-0.00694218194710177
-0.00714747760178318
-0.00734913226925006
-0.00754721243917507
-0.00764065926713746
-0.00773273361738295
-0.00782345655720876
-0.00791284872308234
-0.00800093032941789
-0.00808772117717739
-0.0081732406622999
-0.00825750778396212
-0.00834054115267406
-0.00842235899821272
-0.00849486485580716
-0.00856635688109031
-0.00863684887869255
-0.00870635436917112
-0.0087748865948525
-0.00884245852555807
-0.00890908286421518
-0.00897477205235614
-0.00903953827550734
-0.00910339346847055
-0.00918525461660069
-0.00926584031640404
-0.00934516953723462
-0.00942326086292407
-0.00950013249965332
-0.0095758022836667
-0.00965028768883185
-0.00972360583404847
-0.0097957734905088
-0.00986680708881304
-0.00993047510559544
-0.0099931690068217
-0.0100549016794511
-0.0101156857481029
-0.0101755335804645
-0.010234457292591
-0.010292468754099
-0.0103495795932568
-0.0104058012019721
-0.0104611447406802
-0.0104275473210548
-0.0103948989791038
-0.010363174076056
-0.0103323474818367
-0.0103023945650557
-0.0102732911831958
-0.0102450136729966
-0.0102175388410316
-0.010190843954473
-0.0101649067320413
-0.0101596818591845
-0.0101547618910357
-0.010150134044015
-0.0101457857879988
-0.010141704841411
-0.0101378791664138
-0.0101342969641928
-0.0101309466703381
-0.0101278169503162
-0.0101248966950334
-0.0100944766046072
-0.0100648122336682
-0.0100358817601506
-0.0100076637974771
-0.00998013738600992
-0.00995328198467132
-0.00992707746273287
-0.00990150409176808
-0.00987654253776604
-0.00985217385340265
-0.00988844053135201
-0.00992403207008941
-0.00995895527814766
-0.00999321682927407
-0.0100268232652841
-0.0100597809988579
-0.0100920963162803
-0.010123775380126
-0.0101548242318915
-0.0101852487945728
-0.0101167355698138
-0.0100496250897861
-0.00998388260048261
-0.00991947404471665
-0.00985636604834293
-0.00979452590675352
-0.00973392157164371
-0.00967452163804249
-0.00961629533160206
-0.00955921249614136
-0.00959109788017359
-0.00962226722677643
-0.00965272820508403
-0.00968248833523489
-0.00971155499150553
-0.0097399354053811
-0.00976763666856434
-0.0097946657359241
-0.00982102942838449
-0.00984673443575614
-0.0098259328186016
-0.00980542552512239
-0.00978520005595232
-0.0097652441670569
-0.00974554586477817
-0.009726093400978
-0.00970687526827853
-0.00968788019539733
-0.00966909714257564
-0.00965051529709754
-0.00977323289499564
-0.00989323802545075
-0.0100105784221579
-0.0101253008727253
-0.0102374512377423
-0.0103470744694654
-0.0104542146301309
-0.0105589149098998
-0.0106612176444445
-0.0107611643321823
-0.0106977004803866
-0.0106352635646039
-0.0105738265805982
-0.0105133630722593
-0.0104538471207845
-0.0103952533340763
-0.0103375568363523
-0.0102807332579614
-0.0102247587254042
-0.0101696098515524
-0.0101478902022006
-0.0101262820196446
-0.01010477670445
-0.0100833658390404
-0.0100620411842005
-0.0100407946756479
-0.0100196184206736
-0.00999850469484913
-0.0099774459387992
-0.00995643475503803
-0.00998881092527748
-0.0100201267390226
-0.0100503971522377
-0.0100796368336752
-0.0101078601707548
-0.010135081275324
-0.0101613139893038
-0.01018657189022
-0.010210868296624
-0.0102342162734045
-0.010195346108817
-0.0101568091881518
-0.0101185927043639
-0.0100806841190242
-0.0100430711570777
-0.010005741801706
-0.00996868428929202
-0.00993188710448506
-0.00989533897536374
-0.0098590288686954
-0.00986636949962341
-0.00987303660758596
-0.00987903766282966
-0.00988438000048949
-0.00988907082341577
-0.009893117204944
-0.00989652609160886
-0.00989930430580308
-0.00990145854838303
-0.00990299540122116
-0.0100026815101658
-0.0100997384749649
-0.0101942130526786
-0.0102861510819615
-0.0103755975015482
-0.0104625963683693
-0.0105471908753034
-0.0106294233685745
-0.0107093353648002
-0.0107869675676983
-0.0108155671804195
-0.0108429252781972
-0.0108690610258101
-0.0108939932220479
-0.0109177403071433
-0.0109403203700546
-0.0109617511556019
-0.0109820500714601
-0.0110012341950108
-0.011019320280058
-0.0108430153975094
-0.0106696078569553
-0.0104990341733501
-0.0103312321473591
-0.0101661408397519
-0.0100037005463082
-0.00984385277322432
-0.00968654021301103
-0.0095317067208731
-0.00937929729156036
-0.00935168300056159
-0.00932387639402595
-0.00929587597706719
-0.00926768030327248
-0.00923928797383319
-0.00921069763669246
-0.00918190798570909
-0.00915291775983746
-0.00912372574232325
-0.0090943307599145
-0.00908020877107675
-0.00906556431990922
-0.00905040270871065
-0.00903472915347294
-0.00901854878570057
-0.00900186665419286
-0.0089846877267899
-0.00896701689208286
-0.00894885896108928
-0.00893021866889434
-0.00886082310146539
-0.00879198510550058
-0.00872368857093356
-0.00865591772991752
-0.00858865715006753
-0.0085218917278373
-0.00845560668202775
-0.00838978754742458
-0.00832442016856241
-0.00825949069361301
-0.00814589336999962
-0.00803374986495891
-0.00792302668418735
-0.00781369102667761
-0.00770571077095763
-0.00759905446160426
-0.00749369129602617
-0.00738959111151037
-0.00728672437252736
-0.00718506215828953
-0.00723140811984254
-0.0072758925235475
-0.00731854845990885
-0.00735940838386889
-0.00739850412761631
-0.00743586691313785
-0.0074715273645182
-0.00750551551999348
-0.00753786084376279
-0.007568592237563
-0.00746729337262874
-0.00736711083830822
-0.00726801839989044
-0.00716999037293829
-0.00707300161237555
-0.00697702750179152
-0.00688204394295904
-0.00678802734556145
-0.00669495461712438
-0.00660280315314846
-0.00667657741992696
-0.00674784614342519
-0.0068166558295928
-0.0068830520827765
-0.00694707962383618
-0.00700878230789819
-0.00706820314175287
-0.00712538430090334
-0.00718036714627274
-0.00723319224057666
-0.00724545391528067
-0.00725642476040434
-0.00726612726640289
-0.0072745835027747
-0.00728181512655817
-0.00728784339065827
-0.0072926891520056
-0.00729637287955192
-0.00729891466210475
-0.0073003342160048
-0.00733272468709148
-0.00736337376603733
-0.00739231325490952
-0.00741957434973081
-0.00744518765267107
-0.00746918318399442
-0.00749159039376661
-0.00751243817332764
-0.00753175486653416
-0.00754956828077642
-0.00751014343411932
-0.00747041247616571
-0.00743037879180304
-0.00739004572820476
-0.00734941659564901
-0.00730849466832042
-0.00726728318509501
-0.00722578535030887
-0.0071840043345107
-0.00714194327519867
-0.00716250761760619
-0.00718150860523622
-0.00719897508700668
-0.00721493536623229
-0.00722941721159343
-0.00724244786788504
-0.0072540540665497
-0.00726426203599945
-0.00727309751173044
-0.00728058574623456
-0.00724406855353852
-0.00720712820960516
-0.00716977106430801
-0.00713200337190774
-0.00709383129301465
-0.00705526089651147
-0.00701629816143679
-0.00697694897883033
-0.00693721915354042
-0.00689711440599478
-0.00683636591958288
-0.00677566932915002
-0.00671502179433486
-0.00665442056318976
-0.00659386297045633
-0.00653334643587453
-0.00647286846252519
-0.00641242663520469
-0.00635201861883176
-0.00629164215688517
-0.00625292732344784
-0.00621379630252868
-0.00617425593906097
-0.00613431297335939
-0.00609397404324898
-0.00605324568615073
-0.00601213434112496
-0.00597064635087299
-0.00592878796369817
-0.00588656533542692
-0.00569974585808659
-0.00551553105583494
-0.00533386764287399
-0.00515470342995436
-0.00497798730247577
-0.0048036691990251
-0.00463170009034289
-0.00446203195870992
-0.0042946177777454
-0.00412941149260858
-0.00411008354835723
-0.0040899280771791
-0.00406896078469281
-0.00404719709529981
-0.0040246521578321
-0.00400134085108621
-0.00397727778924591
-0.00395247732719564
-0.00392695356572712
-0.00390072035664113
-0.00383499022873758
-0.00376937304693035
-0.00370386602711712
-0.00363846647349599
-0.00357317177681644
-0.00350797941266477
-0.003442886939783
-0.00337789199842088
-0.00331299230872014
-0.00324818566913036
-0.0031005730913743
-0.00295474876453847
-0.00281067670354594
-0.00266832167475619
-0.00252764918094796
-0.00238862544660188
-0.00225121740347661
-0.00211539267647308
-0.00198111956978069
-0.00184836705329996
-0.00184936617781906
-0.00184911443404581
-0.0018476369717832
-0.00184495847129496
-0.00184110315269987
-0.00183609478517776
-0.00182995669599053
-0.00182271177932222
-0.0018143825049416
-0.00180499092669085
-0.00177684620536206
-0.00174804517687471
-0.00171860142981488
-0.00168852831424187
-0.00165783894645622
-0.00162654621367153
-0.00159466277859239
-0.00156220108390003
-0.0015291733566476
-0.00149559161256701
-0.00140626623768238
-0.00131754188241412
-0.00122940730658602
-0.00114185152733385
-0.00105486381395081
-0.000968433682835685
-0.000882550892541311
-0.000797205438921548
-0.00071238755037467
-0.000628087683181265
-0.000556930905613053
-0.000486014724057166
-0.000415335434768207
-0.000344889440631487
-0.000274673249016079
-0.00020468346967029
-0.000134916812658559
-6.53700863391079e-05
3.95980461860545e-06
7.30758611773506e-05
0.000152349802575451
0.00023120307667727
0.000309642666530395
0.000387675383263136
0.000465307869542875
0.000542546602965896
0.00061939789937987
0.000695867916140538
0.000771962655303825
0.000847687966754613
0.000884451949848738
0.000921685354036469
0.000959377378441567
0.000997517408859061
0.00103609501407276
0.00107509994224711
0.00111452211739204
0.00115435163589904
0.00119457876314734
0.00123519393017868
0.00115405320895673
0.00107578561579396
0.00100033195254566
0.000927634174715932
0.000857635368444221
0.000790279727953001
0.000725512533447052
0.000663280129455584
0.000603529903608235
0.000546210265836235
0.000460451361181627
0.000377654641303136
0.000297758818462307
0.000220703800608779
0.000146430667533727
7.48816475009221e-05
6.00009434587647e-06
-6.02695349662504e-05
-0.000123981702333234
-0.000185189810067729
-3.64584395204364e-05
0.000110419807554164
0.000255479706462843
0.000398755310207199
0.000540279964001247
0.000680086319499435
0.000818206348740674
0.000954671357814093
0.00108951200025212
0.0012227582901564
0.00136951080353015
0.00151441816803153
0.00165751473873518
0.00179883415774543
0.00193840936853336
0.00207627262998765
0.00221245553018511
0.00234698899988641
0.0024799033257624
0.00261122816335661
0.00267457800712364
0.00273775732056147
0.00280076669382685
0.00286360667938743
0.00292627779286003
0.00298878051383283
0.00305111528667156
0.00311328252131032
0.00317528259402708
0.00323711584820433
0.00333004487632174
0.00342216680415455
0.00351349470647586
0.00360404137193561
0.00369381930887301
0.0037828407510135
0.00387111766305207
0.00395866174612573
0.00404548444317694
0.00413159694421037
0.00420803718444464
0.0042839728158669
0.00435941061890951
0.00443435721458353
0.00450881906776287
0.00458280249040338
0.00465631364469811
0.00472935854616987
0.00480194306670275
0.00487407293751327
0.00490271796402712
0.00493180162102743
0.00496131157911783
0.00499123573212761
0.00502156219274888
0.00505227928826167
0.00508337555634483
0.00511483974097145
0.0051466607883868
0.00517882784316718
0.00528254792889267
0.00538513293727611
0.00548660180278107
0.00558697305974045
0.00568626485046512
0.00578449493319084
0.00588168068986681
0.00597783913378878
0.00607298691708017
0.00616714033802384
0.00623834062027737
0.00630902858295817
0.00637921049002354
0.00644889245952047
0.00651808046661481
0.00658678034656043
0.00665499779760941
0.00672273838386454
0.00679000753807506
0.00685681056437718
0.00676189762919997
0.00666983450649042
0.00658055997399648
0.0064940140124184
0.00641013778146723
0.00632887359640278
0.00625016490504124
0.00617395626522314
0.00610019332273233
0.00602882278965731
0.00610130741605468
0.00617317995118796
0.00624444823843188
0.00631511994574713
0.0063852025693092
0.00645470343706491
0.00652362971221836
0.00659198839664735
0.00665978633425213
0.0067270302142373
0.00667222984118541
0.00661937900523143
0.00656843410531085
0.00651935239355551
0.00647209195835561
0.00642661170776104
0.00638287135321496
0.00634083139361316
0.00630045309968266
0.0062616984986731
0.00633581706407961
0.00640920422346002
0.00648186984127953
0.00655382356854229
0.00662507484718918
0.0066956329144079
0.00676550680685718
0.00683470536480711
0.00690323723619655
0.0069711108806102
0.00709446775135097
0.00721603204171519
0.00733583469848947
0.00745390603534693
0.00757027574564055
0.00768497291494096
0.00779802603332378
0.00790946300741147
0.00801931117217471
0.00812759730249787
0.00809643305573605
0.00806658592029219
0.00803802447709104
0.00801071792088088
0.00798463604809272
0.00795974924494266
0.0079360284757725
0.00791344527162383
0.00789197171904085
0.00787158044909757
0.007774580626514
0.00768020204164487
0.00758838703307261
0.00749907907846061
0.00741222277191121
0.0073277638017767
0.00724564892891459
0.00716582596537788
0.00708824375353191
0.00701285214558914
0.00710562161428032
0.0071970809596846
0.00728725105600417
0.00737615234926962
0.00746380486604359
0.00755022822195051
0.0076354416300359
0.00771946390895882
0.00780231349102046
0.00788400843003258
0.00796562705832819
0.00804610430324399
0.00812545756391889
0.00820370388224516
0.00828085995015552
0.00835694211676442
0.00843196639536695
0.00850594847029773
0.00857890370365279
0.00865084714187728
0.00870129834978471
0.00875118708262518
0.00880051906976824
0.00884929991790682
0.00889753511365465
0.00894523002609184
0.00899238990925975
0.00903901990460595
0.00908512504338062
0.009130710248985
0.00921946205481684
0.00930680799027626
0.00939277058969778
0.00947737193062434
0.00956063364308776
0.00964257691870353
0.00972322251958387
0.00980259078707267
0.00988070165030571
0.0099575746345998
0.0100230514751733
0.0100875369440001
0.0101510452282383
0.0102135902265217
0.0102751855548753
0.0103358445525132
0.0103955802875205
0.0104544055624211
0.0105123329196349
0.0105693746468255
0.0106019760575868
0.0106341987851009
0.0106660447153103
0.010697515692823
0.010728613521885
0.0107593399673339
0.0107896967555335
0.0108196855752892
0.0108493080787457
0.0108785658822665
0.0108565446451483
0.0108352056068428
0.0108145293927154
0.0107944970128423
0.0107750898544629
0.0107562896745838
0.0107380785927304
0.0107204390838437
0.0107033539713187
0.0106868064201827
0.0106705926775123
0.0106548876632336
0.0106396754508662
0.0106249404311454
0.0106106673058241
0.0105968410816001
0.0105834470641637
0.010570470852365
0.0105578983324971
0.0105457156726947
0.0105502119944216
0.0105547371333498
0.0105592847589674
0.0105638486677284
0.0105684227806591
0.0105730011410136
0.0105775779119749
0.0105821473744029
0.0105867039246265
0.010591242072281
0.0107129627816122
0.0108322517239756
0.0109491518214253
0.011063705140838
0.0111759529111609
0.0112859355403139
0.0113936926317542
0.0114992630007087
0.0116026846900828
0.0117039949860496
0.0117331241182412
0.0117616513905322
0.0117895831475448
0.0118169256108405
0.0118436848815242
0.0118698669427974
0.0118954776624588
0.0119205227953556
0.0119450079857856
0.0119689387698506
0.011920989011393
0.0118739578914127
0.0118278213706022
0.0117825558948178
0.0117381383855194
0.011694546230401
0.011651757274208
0.0116097498097394
0.011568502569028
0.0115279947146979
0.0114646755675109
0.0114025377574389
0.0113415520352117
0.0112816897420517
0.0112229227980057
0.0111652236905095
0.0111085654631812
0.011052921704838
0.0109982665387333
0.0109445746120083
0.0109993686100943
0.0110528719617696
0.0111051049470639
0.0111560874486476
0.0112058389599169
0.0112543785929171
0.0113017250861069
0.0113478968119677
0.0113929117844596
0.0114367876663292
0.0114821442860286
0.0115263427643369
0.0115694008204575
0.0116113358288512
0.0116521648262668
0.0116919045186301
0.0117305712877952
0.0117681811981604
0.0118047500031516
0.0118402931515753
0.0119463095169538
0.0120498648270592
0.0121510029805998
0.012249767010175
0.0123461990997287
0.012440340601654
0.0125322320535547
0.0126219131946718
0.0127094229819803
0.012794799605965
0.0127910641808844
0.0127870535591153
0.012782768023892
0.0127782078648734
0.0127733733781439
0.0127682648662135
0.0127628826380182
0.0127572270089191
0.0127512983007018
0.0127450968415758
0.0127350065407973
0.0127247183010545
0.012714230986144
0.0127035434959074
0.0126926547656362
0.0126815637654882
0.012670269499915
0.0126587710071009
0.0126470673584127
0.0126351576578596
0.0126653781659733
0.0126945230203904
0.0127226087891339
0.0127496517239514
0.0127756677667617
0.0128006725559728
0.0128246814326726
0.0128477094466956
0.0128697713625678
0.012890881665332
0.0129811050299892
0.0130689689102903
0.0131545157255168
0.0132377870637113
0.0133188236984185
0.0133976656050916
0.0134743519771693
0.0135489212418313
0.0136214110754381
0.0136918584186616
0.0135973340467199
0.0135041796885929
0.0134123633074945
0.0133218535236512
0.013232619601276
0.0131446314358023
0.0130578595413725
0.0129722750385766
0.0128878496424356
0.0128045556506244
0.0126327804697951
0.0124639194812629
0.0122979099090162
0.0121346902488542
0.0119742002430618
0.0118163808555901
0.0116611742477331
0.0115085237542905
0.0113583738602065
0.011210670177676
0.0112534893809314
0.0112947926723639
0.0113346060952473
0.0113729551916943
0.0114098650127841
0.0114453601284863
0.0114794646373866
0.0115122021762165
0.0115435959291931
0.0115736686371708
0.0115363927332426
0.0114991939856407
0.0114620667606156
0.0114250055569996
0.0113880050036549
0.0113510598569724
0.0113141649984203
0.0112773154321408
0.0112405062825944
0.011203732792251
0.0111352990392949
0.0110675414427154
0.0110004425839501
0.0109339854132991
0.0108681532426436
0.0108029297383085
0.0107382989140682
0.0106742451242909
0.0106107530572204
0.0105478077283908
0.0105286373989307
0.0105090983205027
0.0104891941931374
0.01046892866482
0.0104483053326209
0.0104273277438033
0.0104059993969072
0.0103843237428121
0.0103623041857777
0.010339944084463
0.0102877316241114
0.0102357902603583
0.010184111112097
0.0101326854983047
0.0100815049341253
0.0100305611270296
0.00997984597305259
0.00992935155310487
0.00987907012935734
0.00982899414169773
0.00994830355554067
0.0100643354853701
0.0101771522944329
0.0102868151240836
0.010393383918298
0.0104969174476979
0.0105974733330929
0.010695108068552
0.0107898770440125
0.0108818345674363
0.0107713778660032
0.0106623080919987
0.0105545945251592
0.0104482070832714
0.0103431163094843
0.0102392933598748
0.0101367099912611
0.0100353385492593
0.0099351519565785
0.00983612370154932
0.00965595454441241
0.00947857894554292
0.00930393827014977
0.00913197507947255
0.00896263310692929
0.00879585723474107
0.00863159347102322
0.00846978892733449
0.00831039179667452
0.00815335133192076
0.00810415231078021
0.00805504811327194
0.00800603434335296
0.00795710671820059
0.00790826106600966
0.0078594933238332
0.00781079953546576
0.0077621758493684
0.00771361851663465
0.00766512388899642
0.00759857186657194
0.00753244693382101
0.00746673830032308
0.00740143541713109
0.00733652797199789
0.00727200588469757
0.00720785930243971
0.00714407859537476
0.00708065435218878
0.00701757737578554
0.00704155805060522
0.00706409048772625
0.00708520168512216
0.00710491812807551
0.00712326579948057
0.00714027018993914
0.00715595630765387
0.00717034868812321
0.0071834714036416
0.00719534807260929
0.00722582719254926
0.00725469976074364
0.00728199622145215
0.00730774643802191
0.00733197970454793
0.00735472475729961
0.00737600978591819
0.00739586244438939
0.00741430986179634
0.00743137865285642
0.00738567725458248
0.00733990801190091
0.0072940708603571
0.00724816576439197
0.00720219271680056
0.00715615173820082
0.00711004287651256
0.00706386620644587
0.00701762182899937
0.00697130987096794
0.00688011080867809
0.00678976329251648
0.00670024913609095
0.0066115505441268
0.00652365010467525
0.00643653078147703
0.00635017590647828
0.00626456917249536
0.00617969462602577
0.00609553666020231
0.0060138772609013
0.00593286739747446
0.00585249319941479
0.00577274110131753
0.00569359783680282
0.00561505043255919
0.00553708620250552
0.00545969274206921
0.00538285792257817
0.00530656988576433
0.00519945079625166
0.0050934985666285
0.00498868924963302
0.00488499940447151
0.0047824060867078
0.00468088683835442
0.0045804196781612
0.00448098309209751
0.00438255602402427
0.00428511786655193
0.00430337882579319
0.0043202368333609
0.00433571964432911
0.00434985448777175
0.00436266807729389
0.00437418662135175
0.00438443583336553
0.00439344094162957
0.00440122669902342
0.00440781739252823
0.00438571489280899
0.0043630287392598
0.00433977058521938
0.00431595187980456
0.00429158387199979
0.00426667761466437
0.00424124396845888
0.00421529360569242
0.00418883701409233
0.00416188450049781
0.00411980597658498
0.00407755173870196
0.00403512556615467
0.00399253119135027
0.00394977230073415
0.00390685253570766
0.00386377549352678
0.00382054472818225
0.00377716375126146
0.00373363603279245
0.0036601258568816
0.00358708745677451
0.00351451194090962
0.00344239062383791
0.00337071502209396
0.00329947685014895
0.00322866801644389
0.0031582806195017
0.00308830694411633
0.00301873945761765
0.0029110031983523
0.00280444922672967
0.00269905471326947
0.00259479731279103
0.00249165515471496
0.0023896068335583
0.00228863139961904
0.00218870834984652
0.00208981761889362
0.00199193957034755
0.00203836870175275
0.00208283458241585
0.00212537760770084
0.00216603739439567
0.00220485279626375
0.00224186191928377
0.00227710213658411
0.00231061010307788
0.00234242176980472
0.00237257239798511
0.00242747903752317
0.00248025230913776
0.00253093630979402
0.00257957428394655
0.00262620864056294
0.00267088096980632
0.00271363205938362
0.00275450191056612
0.00279352975388917
0.0028307540645371
0.00272370283403792
0.00261784424681563
0.00251315613523655
0.00240961680239352
0.00230720501266035
0.00220589998243471
0.0021056813710656
0.0020065292719616
0.00190842420387652
0.00181134710236863
0.00179714438725347
0.00178225450327826
0.00176669317280796
0.00175047583181049
0.00173361763554706
0.00171613346414795
0.0016980379280764
0.00167934537348241
0.00166006988744911
0.00164022530313344
0.00156089475973784
0.0014822301092793
0.00140422027616295
0.00132685443322503
0.00125012199672159
0.00117401262141691
0.00109851619576935
0.00102362283721332
0.000949322887534787
0.000875606908338651
0.000901039244185306
0.000925016569889863
0.000947570520986328
0.000968732127983414
0.000988531828415748
0.00100699947865317
0.00102416436547347
0.0010400552174031
0.00105470021583038
0.00106812700589604
0.00101828112092721
0.000968543416239227
0.000918914521829939
0.00086939508149538
0.000819985752499641
0.000770687205250554
0.000721500122981543
0.000672425201439194
0.000623463148576493
0.000574614684251798
0.000451871732298044
0.000330761014290676
0.000211252921211273
9.33184611385259e-05
-2.30707531523283e-05
-0.0001379425163425
-0.000251324042480262
-0.000363241976653706
-0.000473722406430565
-0.000582790873069747
-0.000620574252710799
-0.000658428059316949
-0.00069634758388018
-0.000734328186400895
-0.000772365294572313
-0.000810454402491575
-0.000848591069397084
-0.000886770918431807
-0.000924989635431605
-0.000963242967738364
-0.000973936730959048
-0.000985222375393824
-0.000997084506956187
-0.0010095080145961
-0.00102247806470927
-0.00103598009565839
-0.00104999981240475
-0.00106452318124751
-0.00107953642466876
-0.00109502601628227
-0.00117380154808112
-0.00125173924809693
-0.00132885208773579
-0.0014051527556272
-0.00148065366335354
-0.00155536695106544
-0.00162930449298519
-0.00170247790280058
-0.00177489853895144
-0.00184657750981067
-0.00194603596393477
-0.00204418978230003
-0.00214106104976902
-0.0022366713872706
-0.00233104196115671
-0.00242419349237239
-0.00251614626544288
-0.00260692013728142
-0.00269653454582125
-0.00278500851847551
-0.00283074389939254
-0.00287622883941214
-0.00292146410978185
-0.00296645044437384
-0.00301118854051537
-0.00305567905980285
-0.00309992262890043
-0.00314391984032263
-0.00318767125320216
-0.00323117739404243
-0.00323389772226913
-0.00323720482258361
-0.00324108249561479
-0.00324551484437577
-0.00325048626830399
-0.0032559814574207
-0.00326198538660789
-0.0032684833099999
-0.00327546075548779
-0.00328290351933401
-0.00332387418468127
-0.00336460448048787
-0.0034050945468574
-0.00344534450079247
-0.00348535443674809
-0.0035251244271744
-0.00356465452304902
-0.00360394475439899
-0.00364299513081284
-0.00368180564194264
-0.00382297533750795
-0.00396180182115107
-0.00409832711791254
-0.00423259239423246
-0.00436463797521637
-0.0044945033615563
-0.0046222272461136
-0.00474784753017059
-0.00487140133935737
-0.00499292503926062
-0.00508004740026248
-0.00516587450022218
-0.00525042721993195
-0.00533372600502287
-0.00541579087476578
-0.00549664143069658
-0.00557629686506938
-0.00565477596914087
-0.00573209714128934
-0.00580827839497167
-0.00587827861569881
-0.00594727752489546
-0.00601528995202162
-0.00608233041333267
-0.00614841311824453
-0.00621355197557192
-0.00627776059964212
-0.00634105231628675
-0.00640344016871409
-0.00646493692326422
-0.00640484337697909
-0.00634635803181379
-0.00628944333373798
-0.00623406246272021
-0.00618017931815381
-0.00612775850457448
-0.00607676531766396
-0.00602716573053392
-0.00597892638028443
-0.00593201455483181
-0.00590982845202525
-0.00588872528349846
-0.00586867884979448
-0.0058496634736791
-0.00583165398977173
-0.00581462573438458
-0.00579855453556574
-0.00578341670334221
-0.00576918902015878
-0.00575584873150897
-0.00590578483578593
-0.0060532347671964
-0.00619824373685935
-0.00634085605270021
-0.00648111513759555
-0.00661906354715566
-0.00675474298715199
-0.00688819433059679
-0.00701945763448189
-0.00714857215618312
-0.00726508330194094
-0.00737973695195905
-0.00749256575506716
-0.00760360170885576
-0.00771287617278841
-0.00782041988105241
-0.00792626295515305
-0.00803043491625656
-0.00813296469728693
-0.00823388065478126
-0.00829016486912169
-0.00834577272169732
-0.00840071324874928
-0.00845499530790182
-0.00850862758182861
-0.00856161858184627
-0.00861397665143692
-0.00866570996970045
-0.00871682655473861
-0.00876733426697181
-0.00878198409139563
-0.0087967630620517
-0.00881166412115
-0.00882668035469439
-0.00884180498970681
-0.00885703139150747
-0.00887235306105002
-0.00888776363231053
-0.00890325686972919
-0.00891882666570365
-0.00890279571019803
-0.00888747873034013
-0.00887285699438813
-0.00885891214850573
-0.00884562620930947
-0.00883298155656572
-0.00882096092603426
-0.00880954740245533
-0.00879872441267755
-0.00878847571892355
-0.00878956264566733
-0.00879097144082155
-0.00879269125512946
-0.0087947114607998
-0.00879702164718757
-0.00879961161656147
-0.00880247137995645
-0.00880559115310969
-0.00880896135247819
-0.00881257259133649
-0.00876746646603418
-0.00872358663458824
-0.00868090419619388
-0.00863939083305645
-0.00859901879884578
-0.00855976090738192
-0.00852159052154754
-0.00848448154242238
-0.00844840839863545
-0.0084133460359306
-0.00833774248339856
-0.00826395242098942
-0.0081919352482202
-0.00812165118226114
-0.00805306124170141
-0.00798612723063977
-0.00792081172309372
-0.00785707804772095
-0.00779489027284644
-0.00773421319178956
-0.00773408890441297
-0.0077341959525366
-0.00773452545608718
-0.00773506872016815
-0.0077358172314771
-0.00773676265479524
-0.00773789682954732
-0.00773921176643048
-0.00774069964411097
-0.00774235280598707
-0.00782372501675791
-0.00790361668437666
-0.00798205326844698
-0.00805905972916032
-0.00813466053740647
-0.00820887968468229
-0.00828174069280216
-0.00835326662341462
-0.00842348008732872
-0.00849240325365402
-0.00860536411771449
-0.00871614896040541
-0.00882479726610758
-0.00893134774108502
-0.0090358383291707
-0.00913830622713853
-0.00923878789976817
-0.00933731909460853
-0.00943393485644616
-0.00952866954148435
-0.00947051273547376
-0.00941363793939604
-0.0093580155586479
-0.00930361660146041
-0.00925041266696851
-0.0091983759335192
-0.00914747914721374
-0.00909769561067894
-0.00904899917206333
-0.00900136421425331
-0.00904432073795838
-0.00908645320235388
-0.00912777427283022
-0.00916829637478472
-0.00920803169854716
-0.00924699220420706
-0.00928518962634425
-0.00932263547866497
-0.00935934105854514
-0.00939531745148293
-0.00945815779408696
-0.00951972506968071
-0.00958004106985466
-0.00963912716528136
-0.00969700431425921
-0.00975369307108536
-0.00980921359426104
-0.00986358565453284
-0.00991682864277304
-0.00996896157770225
-0.0100238376110645
-0.0100775619355096
-0.0101301540712497
-0.0101816331643061
-0.0102320179941177
-0.0102813269809972
-0.0103295781934387
-0.0103767893552777
-0.0104229778527095
-0.0104681607411658
-0.0104082086508725
-0.0103494190788408
-0.0102917654011503
-0.0102352215425285
-0.0101797619655028
-0.0101253616597695
-0.0100719961317752
-0.0100196413945065
-0.00996827395748349
-0.00991787081695382
-0.0099398667746426
-0.0099613175771014
-0.00998223093993405
-0.0100026144427294
-0.0100224755319042
-0.0100418215234894
-0.0100606596058602
-0.0100789968424111
-0.0100968401741781
-0.0101141964224071
-0.0101055455559308
-0.0100969441938852
-0.0100883883404561
-0.0100798740989467
-0.0100713976699157
-0.0100629553493535
-0.0100545435268941
-0.0100461586840625
-0.0100377973925576
-0.010029456312568
-0.00997492135198103
-0.00992134749852024
-0.00986871270962359
-0.00981699540341072
-0.00976617444958867
-0.00971622916053923
-0.00966713928258418
-0.00961888498742507
-0.00957144686375397
-0.0095248059090316
-0.0096250516162462
-0.00972276323401177
-0.00981798785657009
-0.00991077164514252
-0.0100011598467385
-0.0100891968125872
-0.0101749260161993
-0.0102583900710676
-0.0103396307480116
-0.0104186889921753
-0.0102495268507453
-0.0100833063256457
-0.00991996502765148
-0.00975944182259056
-0.00960167680638592
-0.00944661128059619
-0.00929418772844469
-0.00914434979132707
-0.00899704224578811
-0.00885221098095825
-0.00872503269901039
-0.00859991351840151
-0.00847680878324173
-0.00835567473961424
-0.00823646851767135
-0.00811914811408796
-0.00800367237486516
-0.00789000097847706
-0.00777809441935383
-0.00766791399169445
-0.0076344755789611
-0.00760114962878184
-0.00756793053229704
-0.00753481280392878
-0.00750179107904218
-0.00746886011165291
-0.00743601477217966
-0.00740325004524083
-0.00737056102749443
-0.00733794292552059
-0.00738894402316075
-0.00743829394597981
-0.00748602249645667
-0.0075321588943932
-0.00757673178868595
-0.00761976926886164
-0.00766129887638124
-0.00770134761571702
-0.00773994196520727
-0.00777710788769326
-0.00782744271917676
-0.00787610082267908
-0.00792311265451361
-0.0079685080765659
-0.0080123163682923
-0.00805456623847766
-0.00809528583675716
-0.00813450276490688
-0.00817224408790768
-0.00820853634478717
-0.00820879498961926
-0.0082083656230885
-0.00820725906993272
-0.00820548595372945
-0.00820305670102149
-0.00819998154535927
-0.00819627053126144
-0.00819193351809557
-0.00818698018388034
-0.00818142002901098
-0.00816500236096967
-0.00814820668380558
-0.00813103777737696
-0.0081135003421409
-0.00809559900083586
-0.00807733830013002
-0.00805872271223563
-0.00803975663649044
-0.00802044440090668
-0.00800079026368818
-0.00792374913133451
-0.0078475439133032
-0.00777215526213911
-0.00769756423373819
-0.00762375227936793
-0.00755070123784685
-0.00747839332787936
-0.00740681114054329
-0.00733593763192699
-0.00726575611591279
-0.00723502333894247
-0.00720415538431888
-0.00717315250446674
-0.0071420149644844
-0.00711074304196989
-0.00707933702684951
-0.00704779722120921
-0.00701612393912856
-0.00698431750651721
-0.00695237826095386
-0.00698012792350338
-0.00700651915210937
-0.00703157686072178
-0.00705532548423277
-0.00707778898812891
-0.00709899087794943
-0.00711895420855467
-0.00713770159320839
-0.0071552552124775
-0.00717163682295317
-0.00702681662879463
-0.0068841477290816
-0.00674358499651822
-0.00660508422427333
-0.0064686021076365
-0.00633409622604032
-0.00620152502544137
-0.00607084780105296
-0.00594202468042248
-0.00581501660684641
-0.00590758258534857
-0.00599742306385228
-0.00608459069013574
-0.00616913708025263
-0.00625111283922188
-0.00633056758130302
-0.00640754994986502
-0.00648210763685718
-0.00655428740188975
-0.00662413509093212
-0.00661458842959902
-0.00660437940453457
-0.00659351959526825
-0.00658202037053565
-0.00656989289254297
-0.00655714812114543
-0.00654379681794143
-0.00652984955028404
-0.00651531669521152
-0.00650020844329852
-0.00647314002522575
-0.00644574963857321
-0.00641804226204256
-0.00639002279586992
-0.00636169606343652
-0.0063330668128464
-0.00630413971847188
-0.00627491938246729
-0.00624541033625182
-0.00621561704196183
-0.00608331554421539
-0.00595283418865879
-0.00582413529781473
-0.00569718196798146
-0.00557193805379274
-0.00544836815308578
-0.00532643759207123
-0.0052061124107991
-0.00508735934891461
-0.00497014583169823
-0.00496163519873399
-0.00495240347460434
-0.00494246403839503
-0.00493183002348384
-0.00492051432248199
-0.00490852959207586
-0.00489588825777128
-0.00488260251854222
-0.00486868435138568
-0.00485414551578497
-0.00485014651372917
-0.00484532117488505
-0.00483968520605159
-0.00483325402214328
-0.00482604275204771
-0.00481806624436548
-0.00480933907303447
-0.00479987554284098
-0.00478968969481994
-0.00477879531154641
-0.00480399761590374
-0.00482776397037113
-0.0048501225069924
-0.00487110081804489
-0.00489072596684741
-0.00490902449835124
-0.00492602244951859
-0.00494174535949287
-0.00495621827956482
-0.00496946578293858
-0.00494018849754537
-0.00491058067171368
-0.00488064854768163
-0.00485039826530049
-0.00481983586408866
-0.00478896728524376
-0.00475779837361384
-0.00472633487962849
-0.00469458246119074
-0.0046625466855303
-0.00457012692595028
-0.00447866684632925
-0.00438814709350326
-0.00429854872311824
-0.00420985319145414
-0.00412204234741174
-0.00403509842465937
-0.00394900403393577
-0.00386374215550646
-0.00377929613177022
-0.00383792856160303
-0.00389442788908145
-0.00394883687141848
-0.0040011974341614
-0.00405155068781712
-0.00409993694414438
-0.00414639573211945
-0.00419096581358178
-0.00423368519856618
-0.00427459116032758
-0.00433221877221805
-0.00438772613830165
-0.00444115599786158
-0.00449255025899303
-0.00454195001521218
-0.00458939556173228
-0.00463492641141356
-0.00467858131039356
-0.00472039825340406
-0.0047604144987812
-0.00462757394270358
-0.00449651243240975
-0.00436719491169328
-0.00423958704677793
-0.00411365521184989
-0.00398936647487888
-0.00386668858372217
-0.00374558995250592
-0.00362603964827842
-0.0035080073779295
-0.00341618753786629
-0.00332532017382444
-0.00323538697960946
-0.00314637003654486
-0.00305825180569636
-0.00297101512025131
-0.00288464317804979
-0.0027991195342645
-0.00271442809422657
-0.0026305531063942
-0.00254750495236896
-0.00246524222058567
-0.00238375015866572
-0.00230301433039372
-0.00222302060936314
-0.00214375517274858
-0.00206520449520202
-0.00198735534287051
-0.00191019476753304
-0.00183371010085399
-0.00184308166783445
-0.00185135818412576
-0.0018585627388523
-0.00186471798118874
-0.00186984612912132
-0.00187396897803328
-0.00187710790911817
-0.00187928389762412
-0.00188051752093277
-0.0018808289664761
-0.00176125876401834
-0.00164324467971522
-0.0015267569646601
-0.0014117664848844
-0.00129824470901707
-0.00118616369619025
-0.00107549608418641
-0.000966215077821925
-0.000858294437562549
-0.00075170846836603
-0.000819967924746438
-0.000885954787832337
-0.000949716126132159
-0.00101129808844707
-0.00107074592221587
-0.00112810399149253
-0.00118341579456362
-0.00123672398121278
-0.00128807036963943
-0.0013374959630385
-0.00141852717228555
-0.00149703074956932
-0.00157305908730681
-0.00164666355162684
-0.00171789450284073
-0.00178680131550307
-0.00185343239807071
-0.00191783521216805
-0.00198005629146643
-0.0020401412601855
-0.00193508557215975
-0.00183132485530207
-0.00172883522024725
-0.00162759327438813
-0.00152757611188224
-0.00142876130385779
-0.00133112688881498
-0.00123465136321893
-0.00113931367228026
-0.00104509320091954
-0.00104416874454918
-0.00104243149411599
-0.00103989992677935
-0.00103659216966187
-0.00103252600678605
-0.00102771888587166
-0.00102218792499677
-0.00101594991912513
-0.00100902134650235
-0.00100141837492393
-0.000869080116599208
-0.000738642445639954
-0.000610069731146366
-0.000483327072147792
-0.000358380282937004
-0.00023519587869734
-0.000113741061416901
6.01629391595035e-06
0.000124107652841401
0.00024056383468687
0.000403287978811024
0.000563455308129071
0.000721114420610257
0.00087631292623498
0.00102909746682517
0.00117951373547849
0.00132760649561416
0.00147341959963835
0.00161699600723656
0.0017583778033005
0.00188303894214387
0.00200588571203202
0.00212695170112393
0.00224626981032914
0.0023638722671272
0.00247979063911126
0.002594055847261
0.00270669817895054
0.00281774730069655
0.00292723227065165
0.00294319582442767
0.0029595372620612
0.00297624615105535
0.00299331225170177
0.0030107255133042
0.00302847607047785
0.00304655423952313
0.00306495051487242
0.00308365556560805
0.00310266023205051
0.00313070859997106
0.00315885932766995
0.00318710734042573
0.00321544765006725
0.00324387535332528
0.00327238563021771
0.00330097374246713
0.00332963503195053
0.00335836491918031
0.00338715890181601
0.00336825623430153
0.00335038788161967
0.00333352997174055
0.00331765909538313
0.003302752296847
0.00328878706502772
0.0032757413246123
0.00326359342745097
0.00325232214410195
0.0032419066555456
0.00333487066246817
0.00342654788371674
0.00351696075319864
0.00360613124359978
0.00369408087569769
0.00378083072748848
0.00386640144313157
0.00395081324171578
0.00403408592585046
0.00411623889008483
0.00411898321434587
0.00412225071876945
0.00412602749598565
0.00413029990415871
0.0041350545617687
0.00414027834249755
0.00414595837021787
0.00415208201408213
0.00415863688371039
0.00416561082447449
0.00422499112475241
0.00428370089853681
0.0043417500042842
0.0043991480922455
0.00445590460872437
0.00451202880025045
0.00456752971766963
0.00462241622015244
0.00467669697912277
0.004730380482108
0.00469398760686726
0.00465884839496273
0.00462493409147632
0.00459221650539811
0.00456066799844561
0.00453026147410708
0.00450097036690412
0.00447276863186919
0.00444563073423397
0.00441953163932399
0.00458986585898608
0.0047571842070682
0.00492154326313704
0.00508299846737799
0.00524160414348008
0.00539741352106317
0.00555047875765696
0.00570085096024037
0.00584858020635043
0.00599371556476901
0.00599392432846596
0.00599455318450614
0.00599558988231477
0.00599702240775801
0.00599883897851458
0.00600102803954014
0.00600357825862253
0.00600647852202609
0.00600971793022315
0.00601328579371122
0.00597889678335032
0.00594560009250731
0.00591336993485591
0.00588218103176452
0.0058520086022448
0.00582282835310148
0.00579461646927928
0.005767349604403
0.00574100487150707
0.00571555983395047
0.00557263185390635
0.00543298638959325
0.00529655374401761
0.00516326560566281
0.00503305502088497
0.00490585636686106
0.0047816053250783
0.00466023885535372
0.00454169517037371
0.00442591371074271
0.00454563390944626
0.00466322645555033
0.00477872983663919
0.00489218176601983
0.00500361919831135
0.00511307834472269
0.00522059468802471
0.00532620299722307
0.00542993734193749
0.00553183110649378
0.00551476420335454
0.00549832310531253
0.00548249115948503
0.00546725204111473
0.00545258974711308
0.00543848858973288
0.00542493319036741
0.00541190847347373
0.00539939966061751
0.00538739226463704
0.00546332272951284
0.00553793376087354
0.00561124758900216
0.00568328599678581
0.00575407032876893
0.00582362150002539
0.00589196000485331
0.00595910592529584
0.00602507893949167
0.00608989832985842
0.0061427670502475
0.00619474128181177
0.00624583472994003
0.00629606082404275
0.0063454327231772
0.00639396332155995
0.00644166525396918
0.0064885509010389
0.00653463239444719
0.00657992162200087
0.00671476851552218
0.00684699428369918
0.0069766471743932
0.00710377447080817
0.00722842251088806
0.00735063670632595
0.00747046156119316
0.00758794069019551
0.0077031168365646
0.00781603188959098
0.00777999869995497
0.00774479361161501
0.00771039585707915
0.00767678508373027
0.00764394134563394
0.00761184509550996
0.00758047717686454
0.00754981881627972
0.00751985161585701
0.00749055754581202
0.00746752569249335
0.00744501704767117
0.00742301694316366
0.00740151100479776
0.00738048514663362
0.00735992556530462
0.00733981873447038
0.00732015139938079
0.00730091057154852
0.00728208352352811
0.00723011607840908
0.007179225321671
0.00712938551788704
