5.58504468262577e-26
6.15216547017864e-26
6.77630937647071e-26
7.46315232393631e-26
8.21892935919705e-26
9.05048914529429e-26
9.96535370652781e-26
1.09717839264818e-25
1.20788513469747e-25
1.32965168672061e-25
1.46357169986981e-25
1.61084583931938e-25
1.77279214279371e-25
1.95085737062638e-25
2.14662944117387e-25
2.36185105417949e-25
2.59843461426787e-25
2.85847857721598e-25
3.14428535307978e-25
3.45838091274034e-25
3.80353625806419e-25
4.18279093076046e-25
4.5994787512652e-25
5.05725599672637e-25
5.56013224652673e-25
6.1125041449181e-25
6.71919235340926e-25
7.38548199072106e-25
8.11716688559146e-25
8.9205979976819e-25
9.80273639453335e-25
1.07712112081865e-24
1.18343830339857e-24
1.30014132765186e-24
1.42823399939199e-24
1.56881608422281e-24
1.72309237765127e-24
1.89238262254713e-24
2.07813235216073e-24
2.28192474403806e-24
2.50549357794388e-24
2.7507373993724e-24
3.01973499945415e-24
3.31476233212577e-24
3.63831100038687e-24
3.99310845540678e-24
4.38214006525115e-24
4.80867322416368e-24
5.27628368876961e-24
5.78888434437465e-24
6.35075662282987e-24
6.96658481336468e-24
7.64149352948478e-24
8.3810886186513e-24
9.19150182717627e-24
1.00794395607524e-23
1.10522361115015e-23
1.21179117555803e-23
1.32852361614527e-23
1.45637975881993e-23
1.59640783959388e-23
1.74975374368981e-23
1.91766999462158e-23
2.10152556065251e-23
2.30281655201675e-23
2.52317788878936e-23
2.764396026362e-23
3.02842283316868e-23
3.31739072366246e-23
3.63362915863224e-23
3.97968263482259e-23
4.35833029655485e-23
4.77260731371527e-23
5.22582818315047e-23
5.72161212428967e-23
6.263910754777e-23
6.85703824815904e-23
7.505704193337e-23
8.2150493946753e-23
8.99068487250218e-23
9.83873434636178e-23
1.07658805079549e-22
1.17794154173902e-22
1.28872953853267e-22
1.40982007350544e-22
1.54216008726798e-22
1.68678251306478e-22
1.8448139890048e-22
2.01748325307767e-22
2.20613028060063e-22
2.41221622887711e-22
2.63733425942305e-22
2.88322131416444e-22
3.15177092856703e-22
3.44504717177579e-22
3.76529981155378e-22
4.11498081017952e-22
4.4967622665314e-22
4.9135559294242e-22
5.36853441792627e-22
5.86515429594274e-22
6.40718116087976e-22
6.99871691978301e-22
7.64422944105736e-22
8.3485847858216e-22
9.11708224022603e-22
9.95549238878021e-22
1.08700984890142e-21
1.18677414297591e-21
1.29558685791249e-21
1.41425868540126e-21
1.54367203708994e-21
1.68478730678487e-21
1.83864967203954e-21
2.00639648093785e-21
2.18926527371141e-21
2.38860249297935e-21
2.60587294089061e-21
2.84267004630611e-21
3.10072701041925e-21
3.38192890490072e-21
3.6883258028103e-21
4.02214702917847e-21
4.38581662536158e-21
4.78197012906849e-21
5.21347278038003e-21
5.68343927319514e-21
6.19525518139323e-21
6.75260019964944e-21
7.35947335036188e-21
8.02022032059615e-21
8.73956310640835e-21
9.5226321564562e-21
1.03750012225194e-20
1.1302725141539e-20
1.23123807921364e-20
1.34111114883942e-20
1.46066750951108e-20
1.59074961718628e-20
1.73227224782124e-20
1.88622861993751e-20
2.0536970280809e-20
2.23584802916677e-20
2.43395222710166e-20
2.64938870474134e-20
2.88365415620417e-20
3.13837277683247e-20
3.41530697270882e-20
3.71636895661132e-20
4.04363330266387e-20
4.39935053773574e-20
4.78596185389418e-20
5.20611503296559e-20
5.66268168153192e-20
6.15877588254254e-20
6.69777437818427e-20
7.28333840777956e-20
7.91943733432969e-20
8.61037420392684e-20
9.36081339370374e-20
1.01758105163218e-19
1.10608447622884e-19
1.20218538757288e-19
1.30652719746696e-19
1.41980704435329e-19
1.54278021434711e-19
1.67626492054725e-19
1.82114746919918e-19
1.97838784352567e-19
2.14902573845415e-19
2.3341870820713e-19
2.53509108243143e-19
2.75305784136329e-19
2.98951658016282e-19
3.24601452555365e-19
3.52422650805967e-19
3.82596532897979e-19
4.15319295651414e-19
4.50803261627801e-19
4.89278184648547e-19
5.30992659351443e-19
5.76215642940203e-19
6.25238097910527e-19
6.78374765211746e-19
7.35966078029809e-19
7.98380227159577e-19
8.66015389774149e-19
9.39302134303469e-19
1.0187060151058e-18
1.10473037166003e-18
1.19791934813062e-18
1.29886115036243e-18
1.40819155866145e-18
1.52659771610995e-18
1.65482221366308e-18
1.79366749488356e-18
1.9440006048988e-18
2.10675831002341e-18
2.28295261648392e-18
2.47367671882509e-18
2.68011141087916e-18
2.90353199464838e-18
3.14531572510553e-18
3.40694983176442e-18
3.69004016092964e-18
3.99632048581822e-18
4.32766253526568e-18
4.68608679551233e-18
5.07377414362014e-18
5.49307837542324e-18
5.94653969558804e-18
6.43689924236439e-18
6.96711472498798e-18
7.54037725745547e-18
8.16012947857595e-18
8.83008505483583e-18
9.55424966971654e-18
1.03369436107332e-17
1.11828260736281e-17
1.20969213119157e-17
1.30846467693637e-17
1.41518433430567e-17
1.53048079354748e-17
1.65503284655731e-17
1.78957215212292e-17
1.93488728486956e-17
2.09182808888954e-17
2.26131035856294e-17
2.44432087070623e-17
2.64192279393076e-17
2.85526150296439e-17
3.08557082768991e-17
3.33417976879696e-17
3.60251971424119e-17
3.89213219315631e-17
4.20467720649769e-17
4.54194217650701e-17
4.90585156009792e-17
5.29847717448705e-17
5.72204928683767e-17
6.17896852337359e-17
6.67181865736428e-17
7.20338033959976e-17
7.77664583948996e-17
8.39483486974375e-17
9.06141157274656e-17
9.78010275227048e-17
1.05549174400476e-16
1.13901678930471e-16
1.22904921240274e-16
1.32608780751477e-16
1.43066895521112e-16
1.54336940445425e-16
1.66480925670909e-16
1.79565516651364e-16
1.93662377390091e-16
2.08848538513457e-16
2.25206791936451e-16
2.42826114003182e-16
2.61802119115575e-16
2.82237546003058e-16
3.04242778934659e-16
3.27936406333749e-16
3.53445819425327e-16
3.80907853726426e-16
4.10469476383584e-16
4.42288522567172e-16
4.76534484352278e-16
5.13389355750597e-16
5.53048537807692e-16
5.95721807947286e-16
6.41634358028703e-16
6.91027905887258e-16
7.44161885451476e-16
8.01314720875812e-16
8.62785190496167e-16
9.28893886807572e-16
9.99984779081866e-16
1.07642688568934e-15
1.15861606366296e-15
1.24697692355094e-15
1.34196487814235e-15
1.44406833422578e-15
1.55381103715381e-15
1.67175457863757e-15
1.79850107889205e-15
1.93469605499155e-15
2.08103148808368e-15
2.23824910294991e-15
2.40714387429313e-15
2.58856777508531e-15
2.78343378332048e-15
2.99272016459559e-15
3.21747504909092e-15
3.45882132274007e-15
3.71796185368116e-15
3.99618507646129e-15
4.2948709579374e-15
4.61549737038213e-15
4.95964689896503e-15
5.32901411255062e-15
5.72541332863733e-15
6.15078690525944e-15
6.6072140948066e-15
7.09692049697264e-15
7.62228815045358e-15
8.18586630556898e-15
8.7903829226971e-15
9.43875694430279e-15
1.01341113914022e-14
1.08797873385693e-14
1.16793588250522e-14
1.25366487632426e-14
1.34557459096539e-14
1.44410229677074e-14
1.5497155896035e-14
1.66291445006901e-14
1.78423343946165e-14
1.91424404130122e-14
2.0535571578814e-14
2.20282577184749e-14
2.36274778345201e-14
2.53406903480465e-14
2.71758653314525e-14
2.91415188592038e-14
3.12467496124437e-14
3.35012778817435e-14
3.59154871212672e-14
3.85004682171868e-14
4.12680666432852e-14
4.42309326874156e-14
4.74025749438767e-14
5.07974172787929e-14
5.44308594884032e-14
5.83193418836904e-14
6.24804140491439e-14
6.69328080386882e-14
7.16965162879004e-14
7.67928745387554e-14
8.22446500912177e-14
8.80761357151697e-14
9.43132495765e-14
1.00983641552639e-13
1.08116806335637e-13
1.15744203744996e-13
1.23899386697953e-13
1.32618137312021e-13
1.41938611643119e-13
1.51901493592966e-13
1.62550158551452e-13
1.73930847373559e-13
1.86092851326404e-13
1.99088708679804e-13
2.12974413654032e-13
2.27809638480882e-13
2.43657969379054e-13
2.60587157292471e-13
2.78669384290325e-13
2.97981546580769e-13
3.18605555146465e-13
3.40628655069337e-13
3.64143764674961e-13
3.89249835693063e-13
4.16052235700858e-13
4.44663154190087e-13
4.75202033676639e-13
5.07796027354678e-13
5.42580484884203e-13
5.79699467993432e-13
6.19306297674883e-13
6.61564134856576e-13
7.06646596538996e-13
7.54738409502598e-13
8.06036103812079e-13
8.60748748471494e-13
9.19098731718821e-13
9.81322588591636e-13
1.04767187854513e-12
1.11841411606264e-12
1.1938337573663e-12
1.27423324651107e-12
1.35993412433278e-12
1.45127820391588e-12
1.54862881645438e-12
1.65237213159773e-12
1.76291855660292e-12
1.88070421885777e-12
2.0061925365951e-12
2.13987588288784e-12
2.28227734829912e-12
2.43395260786026e-12
2.59549189836622e-12
2.7675221123093e-12
2.95070901512281e-12
3.14575959277519e-12
3.35342453714317e-12
3.5745008770026e-12
3.8098347629053e-12
4.06032441466483e-12
4.32692324065143e-12
4.61064313859876e-12
4.91255798815513e-12
5.23380734596764e-12
5.57560035467507e-12
5.93921987780113e-12
6.32602687318858e-12
6.73746501829863e-12
7.17506560141567e-12
7.64045269355493e-12
8.13534861666359e-12
8.66157972454123e-12
9.22108251378368e-12
9.81591008297815e-12
1.04482389593463e-11
1.11203763130538e-11
1.18347675804762e-11
1.25940045188363e-11
1.34008337158153e-11
1.42581655789792e-11
1.51690838311714e-11
1.61368555393954e-11
1.71649417061487e-11
1.82570084536897e-11
1.94169388332989e-11
2.06488452932769e-11
2.19570828411615e-11
2.33462629374934e-11
2.48212681603897e-11
2.63872676822016e-11
2.80497336016745e-11
2.98144581772417e-11
3.16875720094342e-11
3.36755632228446e-11
3.57852977006445e-11
3.80240404273759e-11
4.03994779985511e-11
4.2919742358569e-11
4.55934358315851e-11
4.84296575132002e-11
5.1438031094299e-11
5.46287341919148e-11
5.80125292657767e-11
6.16007962031322e-11
6.54055666585409e-11
6.94395602396938e-11
7.37162226348004e-11
7.8249765781849e-11
8.30552101850164e-11
8.81484294886649e-11
9.35461974248649e-11
9.92662372560248e-11
1.05327273840204e-10
1.11749088452937e-10
1.18552576505886e-10
1.25759808309541e-10
1.33394093034273e-10
1.41480046031585e-10
1.50043659685196e-10
1.59112377969803e-10
1.68715174903916e-10
1.78882637092129e-10
1.89647050561532e-10
2.01042492106779e-10
2.13104925368541e-10
2.25872301880788e-10
2.39384667333486e-10
2.53684273309006e-10
2.68815694762735e-10
2.84825953531105e-10
3.01764648163634e-10
3.19684090389374e-10
3.38639448542813e-10
3.58688898289337e-10
3.79893781006283e-10
4.02318770192049e-10
4.26032046293111e-10
4.5110548035668e-10
4.77614826935608e-10
5.05639926691771e-10
5.35264919164548e-10
5.66578466192505e-10
5.99673986498464e-10
6.34649901971582e-10
6.71609896204115e-10
7.10663185865888e-10
7.51924805525867e-10
7.95515906557499e-10
8.41564070793343e-10
8.90203639624186e-10
9.41576059268887e-10
9.95830242973793e-10
1.05312295093398e-09
1.11361918876404e-09
1.17749262538252e-09
1.24492603121236e-09
1.31611173763928e-09
1.39125211871164e-09
1.47056009610786e-09
1.5542596684429e-09
1.6425864660313e-09
1.73578833227339e-09
1.83412593288127e-09
1.93787339421396e-09
2.04731897204575e-09
2.16276575214848e-09
2.28453238412786e-09
2.41295385001503e-09
2.54838226917882e-09
2.69118774119045e-09
2.84175922834152e-09
3.00050547958807e-09
3.16785599776767e-09
3.34426205201465e-09
3.53019773737862e-09
3.7261610837352e-09
3.93267521616548e-09
4.15028956906919e-09
4.37958115637308e-09
4.62115590029035e-09
4.87565002119014e-09
5.14373149124049e-09
5.42610155459556e-09
5.72349631701394e-09
6.03668840790824e-09
6.36648871795138e-09
6.71374821548837e-09
7.07935984513486e-09
7.46426051207875e-09
7.86943315574197e-09
8.29590891660523e-09
8.74476940015003e-09
9.21714904202856e-09
9.71423757873535e-09
1.02372826282215e-08
1.07875923850675e-08
1.13665384350123e-08
1.19755586938197e-08
1.26161604756633e-08
1.32899236964039e-08
1.39985042173479e-08
1.47436373352871e-08
1.55271414248414e-08
1.63509217393605e-08
1.72169743768757e-08
1.81273904178397e-08
1.9084360241649e-08
2.00901780292072e-08
2.11472464590572e-08
2.22580816048985e-08
2.34253180425909e-08
2.4651714175052e-08
2.59401577837666e-08
2.72936718159463e-08
2.87154204167125e-08
3.02087152160209e-08
3.17770218803957e-08
3.3423966939915e-08
3.5153344901263e-08
3.69691256580586e-08
3.88754622100703e-08
4.08766987033493e-08
4.29773788037384e-08
4.5182254416659e-08
4.7496294766538e-08
4.99246958497071e-08
5.24728902750963e-08
5.51465575075435e-08
5.79516345290593e-08
6.08943269339264e-08
6.39811204740533e-08
6.72187930715806e-08
7.06144273163136e-08
7.41754234661618e-08
7.79095129693845e-08
8.18247725280829e-08
8.59296387230358e-08
9.02329232206486e-08
9.4743828583495e-08
9.94719647066342e-08
1.04427365902632e-07
1.0962050865898e-07
1.15062330092378e-07
1.20764247125144e-07
1.26738176409882e-07
1.32996555029315e-07
1.39552361999154e-07
1.46419140602692e-07
1.53611021586787e-07
1.61142747249826e-07
1.69029696453235e-07
1.77287910589119e-07
1.85934120537614e-07
1.94985774648619e-07
2.04461067783638e-07
2.1437897145458e-07
2.24759265097528e-07
2.35622568520603e-07
2.46990375566318e-07
2.58885089030001e-07
2.71330056877147e-07
2.8434960980385e-07
2.97969100185799e-07
3.12214942462675e-07
3.27114655006169e-07
3.42696903521319e-07
3.58991546032234e-07
3.76029679504874e-07
3.93843688161021e-07
4.12467293539139e-07
4.31935606359498e-07
4.52285180252483e-07
4.73554067410782e-07
4.95781876227774e-07
5.19009830986285e-07
5.4328083366362e-07
5.68639527920599e-07
5.95132365344287e-07
6.22807674015914e-07
6.51715729477509e-07
6.81908828172782e-07
7.13441363439726e-07
7.46369904134669e-07
7.8075327596941e-07
8.16652645645446e-07
8.54131607871396e-07
8.93256275351959e-07
9.34095371839172e-07
9.76720328338878e-07
1.02120538256791e-06
1.06762768175977e-06
1.11606738891914e-06
1.16660779262803e-06
1.21933542050891e-06
1.27434015645301e-06
1.33171536172415e-06
1.39155800005175e-06
1.45396876682888e-06
1.51905222253432e-06
1.58691693050042e-06
1.65767559915118e-06
1.73144522883826e-06
1.80834726340513e-06
1.88850774661315e-06
1.97205748356583e-06
2.05913220727112e-06
2.14987275048441e-06
2.24442522297804e-06
2.34294119438673e-06
2.44557788278122e-06
2.55249834912591e-06
2.66387169777939e-06
2.77987328320051e-06
2.90068492302584e-06
3.02649511768765e-06
3.1574992767454e-06
3.29389995210695e-06
3.43590707831943e-06
3.58373822011318e-06
3.7376188273859e-06
3.89778249781782e-06
4.06447124731195e-06
4.23793578845801e-06
4.41843581722145e-06
4.60624030806342e-06
4.80162781770094e-06
5.00488679772029e-06
5.21631591626068e-06
5.43622438898906e-06
5.66493231959034e-06
5.90277105000184e-06
6.1500835206238e-06
6.40722464074239e-06
6.67456166940508e-06
6.95247460699217e-06
7.24135659773231e-06
7.54161434341292e-06
7.8536685285418e-06
8.17795425721811e-06
8.51492150197637e-06
8.8650355648699e-06
9.2287775510637e-06
9.60664485521195e-06
9.99915166089718e-06
1.0406829453413e-05
1.08302275461751e-05
1.12699136210498e-05
1.1726474282892e-05
1.2200515628588e-05
1.26926638309028e-05
1.32035657374335e-05
1.37338894849753e-05
1.42843251296082e-05
1.48555852928164e-05
1.54484058239563e-05
1.60635464793896e-05
1.67017916186029e-05
1.73639509176372e-05
1.80508601001534e-05
1.87633816864626e-05
1.95024057608506e-05
2.02688507575316e-05
2.10636642655656e-05
2.18878238530765e-05
2.27423379111099e-05
2.36282465174717e-05
2.45466223208887e-05
2.5498571445836e-05
2.64852344183744e-05
2.75077871133443e-05
2.85674417232612e-05
2.9665447749261e-05
3.08030930144403e-05
3.19817046999416e-05
3.32026504041263e-05
3.4467339225187e-05
3.57772228675406e-05
3.71337967723505e-05
3.85386012725204e-05
3.99932227725016e-05
4.14992949532567e-05
4.30585000027159e-05
4.46725698720644e-05
4.63432875581942e-05
4.80724884126487e-05
4.98620614773923e-05
5.17139508477244e-05
5.36301570626599e-05
5.56127385230925e-05
5.76638129380484e-05
5.97855587993384e-05
6.19802168849086e-05
6.42500917911828e-05
6.65975534946853e-05
6.90250389432228e-05
7.15350536769022e-05
7.4130173479249e-05
7.68130460586831e-05
7.95863927606048e-05
8.24530103103259e-05
8.541577258708e-05
8.84776324293347e-05
9.16416234716089e-05
9.49108620130025e-05
9.8288548917617e-05
0.000101777971547047
0.000105382505725108
0.000109105617734939
0.000112950866348626
0.000116921904889458
0.000121022483326929
0.000125256450404571
0.000129627755800685
0.000134140452322044
0.000138798698130589
0.00014360675900315
0.000148569010624185
0.000153689940911531
0.000158974152375118
0.000164426364508591
0.000170051416213768
0.000175854268257813
0.000181840005763023
0.000188013840729058
0.000194381114587451
0.000200947300788207
0.000207718007418247
0.000214698979851474
0.000221896103430151
0.000229315406177316
0.000236963061539884
0.000244845391162065
0.000252968867688738
0.000261340117598302
0.000269965924064606
0.000278853229847425
0.000288009140210989
0.000297440925869995
0.000307156025962509
0.000317162051049152
0.000327466786137883
0.000338078193733709
0.000349004416912551
0.000360253782418535
0.000371834803783854
0.000383756184470379
0.000396026821032111
0.000408655806297536
0.000421652432570929
0.000435026194851559
0.000448786794069762
0.000462944140338759
0.000477508356221068
0.000492489780008336
0.000507898969013326
0.000523746702872783
0.000540043986859867
0.000556802055204711
0.000574032374421763
0.00059174664664235
0.000609956812950997
0.000628675056723904
0.000647913806967938
0.000667685741658501
0.000688003791074519
0.000708881141128776
0.000730331236691795
0.000752367784907318
0.000775004758497537
0.000798256399056008
0.000822137220326268
0.000846662011464049
0.000871845840280894
0.000897704056467074
0.000924252294791446
0.000951506478276053
0.000979482821342994
0.00100819783293126
0.001037668319581
0.00106791138848271
0.0010989444504888
0.00113078522308489
0.00116345173331814
0.00119696232067996
0.00123133563994016
0.00126659066392995
0.0013027466862706
0.00133982332404511
0.00137784052040974
0.0014168185471423
0.00145677800712439
0.00149773983675412
0.00153972530828633
0.00158275603209705
0.00162685395886886
0.00167204138169393
0.00171834093809123
0.00176577561193466
0.00181436873528853
0.00186414399014692
0.00191512541007347
0.00196733738173788
0.00202080464634567
0.00207555230095743
0.00213160579969392
0.0021889909548234
0.00224773393772723
0.00230786127974026
0.00236939987286191
0.0024323769703344
0.00249682018708396
0.0025627575000215
0.00263021724819858
0.00269922813281488
0.00276981921707324
0.0028420199258783
0.00291586004537482
0.00299136972232171
0.0030685794632978
0.00314752013373541
0.00322822295677764
0.0033107195119556
0.00339504173368144
0.00348122190955327
0.00356929267846817
0.00365928702853898
0.00375123829481143
0.00384518015677736
0.0039411466356802
0.00403917209160906
0.00413929122037731
0.00424153905018201
0.00434595093804053
0.00445256256600034
0.00456140993711864
0.00467252937120786
0.00478595750034364
0.00490173126413182
0.00501988790473068
0.00514046496162525
0.00526350026615026
0.00538903193575844
0.00551709836803087
0.00564773823442645
0.00578099047376706
0.00591689428545588
0.00605548912242555
0.00619681468381363
0.00634091090736263
0.0064878179615417
0.00663757623738801
0.00679022634006478
0.00694580908013427
0.00710436546454314
0.00726593668731816
0.0074305641199706
0.0075982893016072
0.00776915392874619
0.00794319984483685
0.00812046902948095
0.0083010035873552
0.00848484573683334
0.00867203779830692
0.00886262218220417
0.00905664137670596
0.00925413793515873
0.00945515446318391
0.00965973360548369
0.00986791803234329
0.0100797504258297
0.0102952734656874
0.0105145298149322
0.0107375621051428
0.010964412921452
0.0111951247872389
0.0114297401485219
0.0116683013580564
0.0119108506591371
0.0121574301691076
0.0124080818625796
0.0126628475543639
0.0129217688821162
0.0131848872886999
0.0134522440042697
0.0137238800280788
0.0139998361100137
0.0142801527318601
0.0145648700883039
0.0148540280676713
0.0151476662324138
0.0154458237993406
0.0157485396196058
0.0160558521584535
0.0163677994747277
0.0166844192001523
0.0170057485183868
0.0173318241438643
0.0176626823004183
0.0179983586997043
0.0183388885194246
0.0186843063813617
0.0190346463292291
0.019389941806347
0.0197502256331494
0.0201155299845339
0.0204858863670586
0.0208613255959989
0.0212418777722694
0.0216275722592233
0.022018437659336
0.0224145017907844
0.0228157916639316
0.0232223334577258
0.0236341524960249
0.024051273223858
0.0244737191836324
0.0249015129913
0.0253346763124916
0.0257732298386323
0.0262171932630498
0.0266665852570862
0.0271214234462264
0.0275817243862551
0.0280475035394554
0.0285187752508602
0.0289955527245713
0.0294778480001581
0.0299656719291485
0.0304590341516269
0.030957943072952
0.031462405840608
0.0319724283212033
0.0324880150776307
0.0330091693464032
0.0335358930151795
0.0340681866004939
0.0346060492257046
0.0351494785991755
0.0356984709927058
0.0362530212202224
0.0368131226167499
0.0373787670176728
0.0379499447383053
0.0385266445537839
0.039108853679297
0.0396965577506676
0.0402897408053033
0.0408883852635295
0.041492471910321
0.0421019798774459
0.042716886626039
0.0433371679296171
0.0439627978575541
0.0445937487590291
0.0452299912474625
0.0458714941854561
0.0465182246702506
0.0471701480197164
0.0478272277588915
0.0484894256070809
0.0491567014655338
0.133491095172821
0.132769967131846
0.132036496190738
0.131290930427403
0.130533520983519
0.129764521924055
0.128984190095805
0.128192784985036
0.127390568574374
0.126577805199017
0.125754761402409
0.124921705791467
0.124078908891471
0.123226643000745
0.122365182045206
0.121494801432917
0.120615777908739
0.119728389409184
0.118832914917582
0.117929634319663
0.117018828259662
0.116100777997033
0.115175765263899
0.114244072123307
0.113305980828417
0.112361773682687
0.111411732901181
0.110456140473077
0.109495278025454
0.10852942668848
0.107558866962055
0.106583878584009
0.105604740399948
0.104621730234802
0.103635124766181
0.102645199399602
0.101652228145661
0.100656483499225
0.099658236320717
0.0986577557195466
0.0976553089397723
0.0966511612480387
0.0956455758238562
0.0946388136522805
0.0936311334190429
0.0926227914081844
0.0916140414022428
0.0906051345850376
0.0895963194470974
0.0885878416937699
0.0875799441560511
0.0865728667041715
0.0855668461639687
0.0845621162360791
0.0835589074179728
0.0825574469288573
0.0815579586374714
0.0805606629927869
0.0795657769576363
0.0785735139452771
0.0775840837589044
0.076597692534121
0.0756145426843677
0.0746348328493195
0.0736587578462453
0.0726865086243295
0.071718272221952
0.0707542317269167
0.0697945662396213
0.068839450839154
0.0678890565523045
0.0669435503254708
0.0660030949994435
0.0650678492870479
0.0641379677536168
0.0632136008002723
0.0622948946499863
0.0613819913363928
0.060475028695318
0.059574140358996
0.0586794557529356
0.0577911000954
0.0569091943994626
0.0560338554775968
0.0551651959487587
0.0543033242479214
0.053448344638012
0.0526003572242104
0.0517594579705585
0.0509257387188333
0.050099287209633
0.049280187105627
0.0484685180169161
0.0476643555284513
0.0468677712294563
0.0460788327448012
0.045297603768269
0.0445241440976629
0.043758509671694
0.0430007526085938
0.0422509212463951
0.0415090601848199
0.04077521032872
0.0400494089330074
0.0393316896490183
0.0386220825722504
0.0379206142914137
0.0372273079387366
0.0365421832414672
0.0358652565745097
0.0351965410141384
0.0345360463927283
0.0338837793544456
0.0332397434118369
0.0326039390032616
0.0319763635511068
0.0313570115207307
0.0307458744800739
0.0301429411598846
0.0295481975145012
0.0289616267831362
0.0283832095516086
0.0278129238144686
0.0272507450374636
0.0266966462202914
0.02615059795959
0.0256125685121126
0.0250825238580385
0.0245604277643706
0.0240462418483709
0.0235399256409878
0.0230414366502288
0.022550730424433
0.0220677606153998
0.0215924790413309
0.0211248357495428
0.0206647790789098
0.0202122557219979
0.0197672107868499
0.0193295878583848
0.0188993290593754
0.0184763751109689
0.0180606653927159
0.0176521380020749
0.0172507298133617
0.0168563765361122
0.0164690127728293
0.0160885720760868
0.0157149870049617
0.0153481891807707
0.0149881093420857
0.0146346773990048
0.0142878224866567
0.0139474730179177
0.0136135567353213
0.0132860007621415
0.0129647316526325
0.0126496754414082
0.0123407576919466
0.0120379035442042
0.0117410377613278
0.011450084775452
0.0111649687325705
0.0108856135364726
0.0106119428917347
0.0103438803457603
0.0100813493298607
0.00982427319937115
0.00957257527279743
0.00932617886998859
0.00908500734933383
0.00884898414398032
0.00861803279707147
0.0083920769960052
0.00817104060571249
0.00795484770095795
0.00774342259766414
0.00753668988326274
0.00733457444607615
0.00713700150373418
0.00694389663063033
0.00675518578442402
0.00657079533159485
0.00639065207205593
0.00621468326283425
0.0060428166408259
0.00587498044463525
0.00571110343550729
0.00555111491736297
0.00539494475594805
0.00524252339710601
0.00509378188418638
0.00494865187460023
0.00480706565553465
0.004668956158839
0.00453425697509533
0.00440290236688628
0.00427482728127389
0.00414996736150282
0.0040282589579423
0.00390963913828052
0.00379404569698628
0.00368141716405238
0.00357169281303533
0.00346481266840684
0.00336071751223166
0.00325934889018725
0.00316064911694053
0.0030645612808973
0.00297102924833946
0.00287999766696583
0.00279141196885203
0.00270521837284503
0.00262136388640793
0.00253979630693054
0.0024604642225213
0.00238331701229606
0.00230830484617911
0.00223537868423202
0.00216449027552521
0.00209559215656795
0.00202863764931144
0.00196358085874016
0.0019003766700665
0.00183898074554294
0.00177934952090683
0.00172144020147188
0.00166521075788069
0.00161061992153251
0.00155762717969983
0.00150619277034785
0.00145627767667008
0.00140784362135349
0.00136085306058624
0.00131526917782098
0.00127105587730614
0.001228177777398
0.0011866002036653
0.00114628918179882
0.00110721143033728
0.00106933435322123
0.00103262603218616
0.00099705521900584
0.000962591327596524
0.000929204425992676
0.00089686522820435
0.000865545085966248
0.000835215980388243
0.000805850513516745
0.000777421899816248
0.000749903957579953
0.000723271100278207
0.000697498327853276
0.000672561217968533
0.00064843591722015
0.000625099132318964
0.000602528121249866
0.000580700684416125
0.000559595155775386
0.000539190393974234
0.000519465773487725
0.000500401175770077
0.000481976980422648
0.000464174056384819
0.000446973753153432
0.000430357892036058
0.000414308757443117
0.000398809088223833
0.000383842069050543
0.000369391321855892
0.000355440897327092
0.000341975266461221
0.000328979312185486
0.000316438321045925
0.000304337974968086
0.000292664343092854
0.000281403873690449
0.000270543386155538
0.000260070063086033
0.000249971442448184
0.000240235409830258
0.000230850190786952
0.000221804343276637
0.000213086750193187
0.000204686611994184
0.000196593439427015
0.000188797046354254
0.000181287542679665
0.000174055327375888
0.000167091081614878
0.000160385762001952
0.000153930593914175
0.000147717064943783
0.000141736918447114
0.000135982147199482
0.000130444987156306
0.00012511791132068
0.000119993623717501
0.000115065053474167
0.00011032534900773
0.00010576787231837
0.000101386193388884
9.71740846898764e-05
9.31255157901959e-05
8.9234648072103e-05
8.54958295505888e-05
8.19035897961336e-05
7.84526349601653e-05
7.51378429023442e-05
7.19542584187178e-05
6.88970885697078e-05
6.59616981067294e-05
6.31436049961599e-05
6.04384760391878e-05
5.78421225858935e-05
5.53504963417221e-05
5.29596852642008e-05
5.06659095474723e-05
4.84655176917871e-05
4.63549826546059e-05
4.4330898079371e-05
4.2389974597207e-05
4.05290361958928e-05
3.87450166492489e-05
3.70349559986138e-05
3.5395997076286e-05
3.3825382058527e-05
3.23204490329673e-05
3.08786285618122e-05
2.94974402180335e-05
2.81744890665762e-05
2.69074620562713e-05
2.56941242804563e-05
2.45323150549158e-05
2.34199437503874e-05
2.23549853031364e-05
2.13354753105121e-05
2.03595045984865e-05
1.94252131242913e-05
1.85307830487446e-05
1.76744307789059e-05
1.68543977413656e-05
1.60689395987979e-05
1.53163135661556e-05
1.45947634168011e-05
1.39025016914834e-05
1.3237688532748e-05
1.25984064623777e-05
1.19826302978184e-05
1.13881912631746e-05
1.08127341890096e-05
1.02536665104366e-05
9.7080975623538e-06
9.17276643153146e-06
8.64395635495074e-06
8.11739334967628e-06
7.58812641900025e-06
7.05038630020812e-06
6.49741929884356e-06
5.92129229095611e-06
5.31266446712193e-06
4.66052083928807e-06
3.95186193378402e-06
3.17134345224642e-06
2.30085899897043e-06
1.31905825209901e-06
2.00792202463707e-07
-1.08352369481915e-06
-2.56863840512522e-06
-4.29529698233463e-06
-6.31118655329283e-06
-8.67200890913473e-06
-1.14426927008408e-05
-1.4698758868568e-05
-1.85278534636828e-05
-2.30314624171158e-05
-2.83268230323075e-05
-3.45490469964815e-05
-4.18534694676882e-05
-5.041823826158e-05
-6.04471562826329e-05
-7.21727890695018e-05
-8.58598476016698e-05
-0.00010180885429257
-0.000120360097322435
-0.000141897875092935
-0.000166855028571035
-0.000195717754591813
-0.000229030687777348
-0.0002674022325798
-0.000311510120060038
-0.000362107156373474
-0.000420027121571856
-0.000486190768281945
-0.000561611860151092
-0.000647403179735791
-0.000744782424862824
-0.000855077901546193
-0.000979733910456906
-0.00112031571290965
-0.0012785139515619
-0.00145614839076585
-0.00165517083203812
-0.00187766705170577
-0.00212585760076791
-0.00240209730169506
-0.0027088732736183
-0.00304880131647038
-0.00342462048646072
-0.00383918570012872
-0.00429545821240707
-0.00479649382592232
-0.00534542870438193
-0.00594546268251511
-0.00659983998877981
-0.00731182732493346
-0.00808468927857624
-0.00892166108076691
-0.00982591876054848
-0.0108005467914024
-0.0118485033707947
-0.0129725835225853
-0.0141753802624643
-0.0154592441179993
-0.0168262413465041
-0.0182781112448055
-0.0198162229940849
-0.0214415325292734
-0.0231545399648154
-0.0249552481459241
-0.0268431229255906
-0.0288170557914637
-0.0308753294823458
-0.033015587240407
-0.0352348063415803
-0.0375292765322296
-0.0398945839745542
-0.0423256012660662
-0.0448164840496219
-0.0473606746701402
-0.0499509132625955
-0.0525792565737239
-0.0552371047280834
-0.057915236048632
-0.0606038499343031
-0.0632926176836585
-0.0659707410363225
-0.0686270180845864
-0.0712499160882156
-0.0738276506084097
-0.0763482702641627
-0.0787997463081672
-0.0811700661221498
-0.0834473296450584
-0.0856198476739105
-0.0876762409180153
-0.0896055386442095
-0.0913972757250109
-0.0930415868940007
-0.094529297023995
-0.0958520062738103
-0.0970021689985421
-0.0979731653857669
-0.0987593648649858
-0.0993561804387628
-0.0997601131997306
-0.0999687864260431
-0.0999809687867958
-0.0997965863359686
-0.0994167231260293
-0.0988436104277339
-0.0980806046981338
-0.0971321545915488
-0.0960037574555962
-0.0947019058936543
-0.0932340251039442
-0.0916084018215349
-0.0898341057910142
-0.0879209047827143
-0.0858791742328624
-0.0837198026369016
-0.081454093854917
-0.0790936674983123
-0.0766503585578766
-0.0741361174055642
-0.0715629112566048
-0.0689426281161599
-0.0662869841569971
-0.0636074353834333
-0.0609150943338454
-0.0582206524615347
-0.0555343087138255
-0.0528657047041647
-0.0502238667439897
-0.0476171548725016
-0.0450532188952878
-0.0425389613192221
-0.0400805069530106
-0.037683178832036
-0.0353514800243723
-0.0330890807833271
-0.0308988104319596
-0.0287826532975771
-0.0267417479601243
-0.0247763890382193
-0.0228860307107093
-0.0210692911603577
-0.0193239571295925
-0.0176469877961423
-0.0160345172086761
-0.0144818545688606
-0.0129834817062743
-0.0115330471657912
-0.0101233564128714
-0.00874635776007089
-0.00739312372726101
-0.0060538276678837
-0.0047177156231553
-0.00337307350462576
-0.00200718985190076
-0.000606314565487463
0.000844385826547691
0.00236087564659165
0.00396029940326263
0.00566103193187846
0.00748272812164595
0.00944637085013391
0.0115743155901126
0.0138903300070292
0.0164196267301915
0.0191888873604289
0.0222262756748492
0.0255614379090084
0.0292254879419454
0.0332509751838188
0.0376718329731467
0.042523305334308
0.047841850029608
0.0536650159668333
0.0600312931954631
0.0669799339448981
0.07455074342741
0.0827838394480076
0.0917193802326939
0.101397260304436
0.11185677470058
0.123136252332542
0.135272659834132
0.148301177822675
0.162254752099826
0.177163622938674
0.193054836230115
0.209951740884395
0.227873477491279
0.246834463821863
0.266843883294025
0.287905183008265
0.310015588377559
0.333165641711445
0.35733877235708
0.382510906137728
0.408650121850902
0.435716362484887
0.463661208577479
0.492427720767881
0.521950358080641
0.552154977828449
0.582958922231237
0.614271195929183
0.645992737524029
0.678016787129984
0.710229350666094
0.742509760293543
0.774731329015175
0.8067620960307
0.83846565800552
0.869702079987923
0.900328878324921
0.930202066608883
0.959177254459915
0.987110787840088
1.01386091862805
1.03928899037865
1.06326062657254
1.08564690724028
1.10632551963905
1.12518186867607
1.14211013301571
1.15701425327963
1.16980883944473
1.18041998545608
1.18878598018741
1.19485790518292
1.19860011108163
1.19999056623319
1.19902107273565
1.19569734693146
1.19003896325539
1.18207916220535
1.17186452507089
1.15945451987101
1.1449209246918
1.1283471362448
1.10982737296077
1.08946578326615
1.06737547083951
1.04367744959417
1.01849954186874
0.991975233818705
0.964242502286739
0.93544262748489
0.905719005654008
0.875215975482952
0.844077671483688
0.812446916746151
0.780464166556122
0.748266513273152
0.715986761657766
0.683752582531869
0.651685751281716
0.619901476293581
0.588507820976067
0.557605221595089
0.52728610175162
0.497634582991443
0.468726289770825
0.440628245829111
0.413398857955563
0.387087982193921
0.361737066714689
0.337379364908124
0.314040211712969
0.291737355799011
0.270481339962025
0.250275921963882
0.231118528051711
0.213000731508508
0.195908748814519
0.179823946321168
0.164723350745737
0.150580157272087
0.13736422957664
0.12504258667714
0.113579872110379
0.102938801572213
0.0930805857868321
0.0839653260012116
0.0755523801156404
0.0678006980529405
0.0606691255303551
0.0541166759227537
0.0481027703885598
0.0425874468672469
0.0375315389463311
0.0328968259352149
0.0286461557723936
0.0247435426315763
0.021154241282563
0.0178448004057243
0.014783097157111
0.0119383553372615
0.00928114953357553
0.00678339758712337
0.00441834368312685
0.00216053428361038
-1.42109857476847e-05
-0.00212883151150175
-0.00420505909614263
-0.00626345091908403
-0.00832342056206209
-0.0104032657942968
-0.0125201920090514
-0.0146903304050582
-0.0169287502115132
-0.0192494644617506
-0.0216654290262511
-0.0241885348184095
-0.0268295932844499
-0.0295983154802733
-0.032503285220906
-0.0355519269607505
-0.038750469223265
-0.0421039045450545
-0.045615947030001
-0.049288988722153
-0.0531240560999419
-0.0571207680674456
-0.0612772968692408
-0.0655903333828068
-0.0700550582452977
-0.0746651202490121
-0.0794126233916646
-0.0842881238933968
-0.0892806383925815
-0.0943776644077043
-0.0995652140038025
-0.104827861430916
-0.110148805310621
-0.115509945737406
-0.120891976437571
-0.126274491892344
-0.131636109088187
-0.136954603309395
-0.142207057140383
-0.147370021602122
-0.152419688113071
-0.157332069744543
-0.162083190037837
-0.166649277469883
-0.171006963499631
-0.175133482002168
-0.179006867804909
-0.182606151982473
-0.185911551545841
-0.188904651178581
-0.191568574728314
-0.193888144255427
-0.195850024571835
-0.19744285136888
-0.198657341232623
-0.199486382073598
-0.199925102752939
-0.199970920963124
-0.199623568714813
-0.198885095086048
-0.197759846201266
-0.19625442271939
-0.194377615417424
-0.192140319752841
-0.189555430569569
-0.186637718373636
-0.183403688841051
-0.179871427428417
-0.176060431132866
-0.171991429589286
-0.167686197797929
-0.163167362842818
-0.158458206990697
-0.153582469551891
-0.148564149839283
-0.14342731348164
-0.138195904234821
-0.132893563292143
-0.127543457926631
-0.122168121106888
-0.116789303519005
-0.111427839203583
-0.106103525783952
-0.100835020023583
-0.0956397492115933
-0.0905338386396423
-0.0855320552049737
-0.0806477669566852
-0.0758929181986603
-0.0712780195756423
-0.0668121524010788
-0.0625029863384366
-0.0583568094228214
-0.0543785693080134
-0.050571924545503
-0.0469393046468144
-0.0434819776477514
-0.0402001238820917
-0.0370929146816177
-0.0341585947473698
-0.0313945669819616
-0.0287974786326526
-0.0263633076673895
-0.0240874483891401
-0.0219647953851458
-0.0199898250050921
-0.018156673663476
-0.0164592123645254
-0.0148911169511133
-0.0134459336803572
-0.01211713982654
-0.0108981991052726
-0.00978261180027337
-0.00876395955492754
-0.00783594486413423
-0.00699242536741195
-0.00622744310150612
-0.00553524891968517
-0.0049103223256276
-0.00434738700244154
-0.00384142234228171
-0.00338767129966573
-0.00298164490244656
-0.00261912375908941
-0.00229615690003512
-0.00200905828518949
-0.00175440129963282
-0.00152901154615541
-0.00132995822686764
-0.00115454438751671
-0.00100029627786872
-0.000864952060126993
-0.000746450075348694
-0.000642916855642225
-0.000552655047958677
-0.000474131393868766
-0.000405964889119239
-0.000346915227211146
-0.000295871612916276
-0.000251842014669925
-0.000213942909236622
-0.000181389557986159
-0.000153486841552092
-0.000129620668560345
-0.000109249964468737
-9.18992382905071e-05
-7.71517180096347e-05
-6.46430397444639e-05
-5.40554710837143e-05
-4.51126454030553e-05
-3.75747812682338e-05
-3.12343591386925e-05
-2.59122264022451e-05
-2.14541011997976e-05
-1.77274454465385e-05
-1.4618677836618e-05
-1.2030698352551e-05
-9.8806968160996e-06
-8.09821924945369e-06
-6.62346720659467e-06
-5.40580673446284e-06
-4.4024651887355e-06
-3.57739572275997e-06
-2.90029085987649e-06
-2.34572812391063e-06
-1.89243221998563e-06
-1.52263971257177e-06
-1.22155352832319e-06
-9.7687590976636e-07
-7.78409657244348e-07
-6.1771861813834e-07
-4.87839413830732e-07
-3.83037337340085e-07
-2.9860021060108e-07
-2.30664763542634e-07
-1.76070791743118e-07
-1.32238970346953e-07
-9.70687542521402e-08
-6.8853283628799e-08
-4.62086449256545e-08
-2.80152159001786e-08
-1.33691539387054e-08
-1.54237485016685e-09
8.0503810157054e-09
1.58785828007204e-08
2.23180451787451e-08
2.76690090913166e-08
3.21708738578441e-08
3.60141715283307e-08
3.93502760680338e-08
4.22992568427685e-08
4.49562158037084e-08
4.73963888936747e-08
4.96792428824858e-08
5.18517576635075e-08
5.39510497702989e-08
5.60064644311839e-08
5.80412399495305e-08
6.00738287884394e-08
6.21189437758576e-08
6.41883847561939e-08
6.62916903111876e-08
6.84366504460195e-08
7.06297090415052e-08
7.28762791207927e-08
7.51809893282098e-08
7.75478762680522e-08
7.99805343360253e-08
8.24822322582811e-08
8.50560036194082e-08
8.77047171185905e-08
9.04311310663426e-08
9.32379356609826e-08
9.61277858138497e-08
9.91033266844239e-08
1.02167213608084e-07
1.05322127723513e-07
1.08570788312594e-07
1.11915962635808e-07
1.15360473867087e-07
1.18907207592882e-07
1.22559117232388e-07
1.26319228652342e-07
1.30190644185571e-07
1.34176546212851e-07
1.38280200429723e-07
1.42504958890781e-07
1.46854262901712e-07
1.51331645812521e-07
1.55940735752425e-07
1.60685258337224e-07
1.65569039372596e-07
1.70596007571144e-07
1.75770197296955e-07
1.81095751348217e-07
1.8657692378614e-07
1.92218082816738e-07
1.98023713730629e-07
2.03998421905191e-07
2.101469358726e-07
2.16474110456856e-07
2.22984929982499e-07
2.29684511557432e-07
2.36578108432149e-07
2.43671113437485e-07
2.50969062502934e-07
2.5847763825758e-07
2.66202673715563e-07
2.74150156048119e-07
2.82326230444103e-07
2.90737204061019e-07
2.99389550068585e-07
3.08289911786803e-07
3.17445106920684e-07
3.26862131893663e-07
3.36548166281853e-07
3.46510577351353e-07
3.56756924700751e-07
3.67294965011152e-07
3.78132656905962e-07
3.89278165922803e-07
4.00739869599944e-07
4.1252636267964e-07
4.24646462430911e-07
4.3710921409422e-07
4.49923896450644e-07
4.63100027518186e-07
4.76647370377807e-07
4.90575939132006e-07
5.04896004998613e-07
5.19618102542645e-07
5.34753036049145e-07
5.50311886039813e-07
5.66306015936544e-07
5.82747078874774e-07
5.99647024669781e-07
6.17018106939125e-07
6.34872890384294e-07
6.53224258234985e-07
6.72085419859191e-07
6.91469918542517e-07
7.11391639440231e-07
7.31864817705405e-07
7.52904046796869e-07
7.74524286970457e-07
7.96740873957316e-07
8.19569527833032e-07
8.43026362081356e-07
8.67127892856396e-07
8.91891048447356e-07
9.17333178949652e-07
9.43472066146688e-07
9.70325933606316e-07
9.97913456996279e-07
1.026253774623e-06
1.05536649819791e-06
1.08527172383607e-06
1.11599004329134e-06
1.14754255543282e-06
1.17995087796735e-06
1.21323715941263e-06
1.24742409132601e-06
1.28253492079377e-06
1.31859346318586e-06
1.3556241151814e-06
1.39365186806982e-06
1.43270232133321e-06
1.47280169651503e-06
1.51397685138065e-06
1.55625529437537e-06
1.59966519938533e-06
1.6442354208073e-06
1.68999550893288e-06
1.7369757256531e-06
1.78520706048954e-06
1.83472124695784e-06
1.88555077927003e-06
1.93772892938162e-06
1.9912897643902e-06
2.04626816429181e-06
2.10269984010165e-06
2.16062135234599e-06
2.22007012993188e-06
2.28108448940157e-06
2.3437036545789e-06
2.40796777661422e-06
2.47391795443581e-06
2.54159625561434e-06
2.61104573764836e-06
2.68231046967816e-06
2.7554355546356e-06
2.83046715183789e-06
2.90745250003295e-06
2.98643994090448e-06
3.06747894304508e-06
0.0315830986174889
0.0312395040028994
0.030898465007842
0.0305599796899541
0.0302240458365731
0.0298906609680344
0.0295598223409836
0.0292315269517027
0.0289057715394495
0.0285825525898077
0.0282618663380493
0.0279437087725062
0.0276280756379511
0.0273149624389876
0.0270043644434464
0.0266962766857896
0.0263906939705191
0.0260876108755914
0.0257870217558359
0.025488920746376
0.0251933017660535
0.024900158520854
0.0246094845073333
0.0243212730160438
0.0240355171349605
0.0237522097529045
0.023471343562966
0.0231929110659216
0.0229169045736511
0.0226433162125464
0.022372137926918
0.0221033614823937
0.0218369784693113
0.0215729803061044
0.0213113582426789
0.021052103363782
0.0207952065923615
0.0205406586929145
0.0202884502748264
0.0200385717956972
0.0197910135646577
0.0195457657456715
0.0193028183608248
0.0190621612936024
0.0188237842921487
0.0185876769725148
0.0183538288218896
0.0181222292018151
0.0178928673513849
0.0176657323904264
0.0174408133226644
0.017218099038868
0.0169975783199774
0.0167792398402133
0.0165630721701656
0.0163490637798626
0.0161372030418205
0.0159274782340707
0.0157198775431672
0.0155143890671713
0.0153110008186154
0.0151097007274437
0.0149104766439293
0.0147133163415704
0.0145182075199603
0.0143251378076356
0.0141340947648992
0.0139450658866189
0.0137580386050015
0.0135730002923412
0.0133899382637429
0.0132088397798205
0.0130296920493674
0.0128524822320027
0.0126771974407899
0.0125038247448289
0.0123323511718212
0.0121627637106085
0.0119950493136825
0.0118291948996688
0.0116651873557818
0.0115030135402523
0.0113426602847268
0.0111841143966384
0.0110273626615497
0.0108723918454668
0.0107191886971246
0.0105677399502436
0.0104180323257577
0.0102700525340125
0.0101237872769356
0.00997922325017654
0.00983634714521811
0.00969514565145835
0.00955560545826312
0.00941771325698895
0.009281455742977
0.00914681961751692
0.00901379158978164
0.00888235837873258
0.00875250671499501
0.00862422334270439
0.00849749502132264
0.00837230852742533
0.00824865065645933
0.0081265082244707
0.00800586806980369
0.00788671705476986
0.00776904206728824
0.00765283002249626
0.0075380678643312
0.00742474256708294
0.00731284113691733
0.00720235061337089
0.00709325807081664
0.00698555061990096
0.00687921540895225
0.00677423962536063
0.00667061049692948
0.00656831529319885
0.00646734132674029
0.0063676759544242
0.00626930657865884
0.00617222064860194
0.0060764056613447
0.00598184916306814
0.00588853875017262
0.00579646207037978
0.00570560682380796
0.0056159607640208
0.00552751169904903
0.00544024749238627
0.00535415606395831
0.00526922539106656
0.00518544350930574
0.00510279851345575
0.00502127855834846
0.00494087185970897
0.00486156669497211
0.0047833514040742
0.00470621439021994
0.00463014412062548
0.00455512912723684
0.00448115800742478
0.004408219424656
0.0043363021091407
0.00426539485845722
0.00419548653815342
0.00412656608232563
0.00405862249417495
0.00399164484654129
0.00392562228241551
0.00386054401542982
0.00379639933032646
0.0037331775834055
0.00367086820295121
0.00360946068963803
0.00354894461691585
0.00348930963137508
0.00343054545309177
0.00337264187595295
0.00331558876796249
0.00325937607152787
0.0032039938037277
0.00314943205656097
0.00309568099717738
0.00304273086808991
0.00299057198736922
0.00293919474882047
0.00288858962214281
0.00283874715307158
0.00278965796350383
0.00274131275160712
0.00269370229191195
0.00264681743538822
0.00260064910950574
0.00255518831827929
0.00251042614229831
0.00246635373874153
0.00242296234137695
0.00238024326054709
0.00233818788314014
0.00229678767254711
0.00225603416860507
0.00221591898752707
0.00217643382181874
0.00213757044018188
0.00209932068740541
0.00206167648424371
0.0020246298272829
0.00198817278879495
0.00195229751658016
0.00191699623379824
0.00188226123878791
0.00184808490487576
0.00181445968017414
0.00178137808736873
0.0017488327234957
0.00171681625970885
0.00168532144103701
0.00165434108613184
0.00162386808700624
0.00159389540876378
0.00156441608931911
0.00153542323910988
0.00150691004080008
0.00147886974897527
0.00145129568982988
0.00142418126084657
0.00139751993046831
0.00137130523776285
0.0013455307920803
0.00132019027270375
0.00129527742849307
0.00127078607752242
0.00124671010671135
0.00122304347144984
0.00119978019521751
0.0011769143691971
0.00115444015188245
0.00113235176868129
0.00111064351151276
0.00108930973840023
0.00106834487305917
0.00104774340448066
0.00102749988651045
0.00100760893742385
0.000988065239496665
0.000968863538572222
0.000949998643624808
0.000931465426319619
0.000913258820569339
0.000895373822087641
0.000877805487939639
0.000860548936089537
0.000843599344945635
0.00082695195290275
0.000810602057882363
0.000794545016870481
0.000778776245453485
0.000763291217352061
0.000748085463953321
0.000733154573841358
0.000718494192326243
0.000704100020971718
0.000689967817121661
0.000676093393425436
0.000662472617362333
0.000649101410765125
0.000635975749342959
0.000623091662203664
0.000610445231375558
0.000598032591328966
0.000585849928497461
0.000573893480799019
0.00056215953715717
0.000550644437022226
0.000539344569892769
0.000528256374837395
0.00051737634001693
0.000506701002207147
0.00049622694632207
0.000485950804938047
0.000475869257818566
0.000465979031440014
0.000456276898518408
0.000446759677537181
0.000437424232276158
0.000428267471341743
0.000419286347698439
0.000410477858201786
0.000401839043132735
0.000393366985733621
0.000385058811745722
0.000376911688948533
0.000368922826700813
0.000361089475483433
0.000353408926444154
0.000345878510944342
0.000338495600107712
0.000331257604371162
0.000324161973037723
0.000317206193831721
0.000310387792456193
0.000303704332152574
0.00029715341326277
0.00029073267279361
0.000284439783983747
0.000278272455873069
0.000272228432874618
0.000266305494349119
0.000260501454182102
0.000254814160363704
0.000249241494571158
0.00024378137175401
0.000238431739722119
0.000233190578736434
0.000228055901102626
0.000223025750767571
0.000218098202918718
0.000213271363586391
0.000208543369249015
0.000203912386441326
0.000199376611365572
0.000194934269505712
0.000190583615244671
0.000186322931484631
0.000182150529270404
0.000178064747415893
0.000174063952133647
0.000170146536667556
0.000166310920928652
0.000162555551134078
0.000158878899449202
0.000155279463632895
0.00015175576668599
0.000148306356502922
0.000144929805526552
0.000141624710406201
0.000138389691658866
0.000135223393333657
0.000132124482679431
0.000129091649815638
0.000126123607406388
0.000123219090337705
0.000120376855398022
0.000117595680961861
0.000114874366676727
0.000112211733153214
0.000109606621658292
0.000107057893811811
0.000104564431286172
0.000102125135509197
9.97389273701686e-05
9.74047469290292e-05
9.5121553128755e-05
9.2888323510864e-05
9.0704053934071e-05
8.85677582960704e-05
8.6478468258428e-05
8.44352329745863e-05
8.24371188209493e-05
8.04832091310499e-05
7.8572603932776e-05
7.67044196886368e-05
7.48777890390633e-05
7.30918605487096e-05
7.13457984557507e-05
6.96387824241474e-05
6.79700072988575e-05
6.63386828639746e-05
6.47440336037681e-05
6.31852984665937e-05
6.16617306316576e-05
6.01725972785907e-05
5.87171793598135e-05
5.72947713756512e-05
5.5904681152159e-05
5.45462296216272e-05
5.32187506057095e-05
5.19215906011389e-05
5.06541085679742e-05
4.94156757203149e-05
4.82056753194363e-05
4.70235024692584e-05
4.58685639140885e-05
4.47402778385453e-05
4.36380736695711e-05
4.25613918804357e-05
4.15096837966097e-05
4.04824114033857e-05
3.94790471551027e-05
3.8499073785812e-05
3.75419841212151e-05
3.6607280891665e-05
3.5694476546018e-05
3.48030930660813e-05
3.39326617813799e-05
3.30827231839314e-05
3.22528267426769e-05
3.14425307171774e-05
3.06514019701366e-05
2.98790157782552e-05
2.91249556408691e-05
2.83888130857479e-05
2.76701874713679e-05
2.6968685784881e-05
2.62839224349131e-05
2.56155190382265e-05
2.4963104199158e-05
2.43263132806278e-05
2.37047881653668e-05
2.30981770058538e-05
2.25061339612868e-05
2.19283189197123e-05
2.13643972032331e-05
2.08140392539735e-05
2.02769202982248e-05
1.9752719985911e-05
1.92411220021923e-05
1.87418136476867e-05
1.82544853834015e-05
1.7778830336049e-05
1.73145437589662e-05
1.68613224433443e-05
1.6418864073932e-05
1.59868665227651e-05
1.55650270738167e-05
1.51530415707431e-05
1.47506034791107e-05
1.43574028536357e-05
1.39731252000347e-05
1.35974502200701e-05
1.3230050427278e-05
1.2870589619669e-05
1.25187211944032e-05
1.21740862880445e-05
1.18363117244835e-05
1.15050077509984e-05
1.11797655411589e-05
1.08601544413906e-05
1.05457189359904e-05
1.02359753031951e-05
9.93040793257309e-06
9.62846527150491e-06
9.32955536583981e-06
9.03304095696597e-06
8.73823409448111e-06
8.44439022041616e-06
8.15070167752022e-06
7.8562905904628e-06
7.560201064946e-06
7.26139064562552e-06
6.95872096942959e-06
6.65094754631586e-06
6.33670859472705e-06
6.01451285399279e-06
5.68272629066779e-06
5.33955761031172e-06
4.98304248048851e-06
4.61102636480877e-06
4.22114586166195e-06
3.81080843488386e-06
3.37717041700782e-06
2.91711315894863e-06
2.4272171929952e-06
1.9037342688608e-06
1.34255711526684e-06
7.39186772165358e-07
8.86973312458477e-08
-6.14302085132215e-07
-1.37570828394342e-06
-2.20196808528393e-06
-3.1001257221725e-06
-4.07787375585778e-06
-5.14360771318994e-06
-6.30648465941294e-06
-7.57648592622901e-06
-8.9644842210548e-06
-1.04823153489968e-05
-1.214285478411e-05
-1.39600993308609e-05
-1.59492541203543e-05
-1.81268251886074e-05
-2.05107178859486e-05
-2.31203413673048e-05
-2.59767194125889e-05
-2.91026078245713e-05
-3.25226186482346e-05
-3.62633514506855e-05
-4.03535318939968e-05
-4.48241578247169e-05
-4.97086530931919e-05
-5.50430293029472e-05
-6.08660556752223e-05
-6.7219437196069e-05
-7.41480011930337e-05
-8.16998924653843e-05
-8.99267770656689e-05
-9.88840548012623e-05
-0.000108631080492166
-0.000119231393985488
-0.000130752958887841
-0.00014326840993408
-0.000156855308864155
-0.000171596408629743
-0.00018757992569798
-0.000204899820161706
-0.000223656083303708
-0.000243955032196375
-0.000265909610848666
-0.00028963969733834
-0.00031527241629012
-0.000342942455979312
-0.000372792389255489
-0.000404972997393082
-0.000439643595884078
-0.000476972361094052
-0.000517136656605936
-0.00056032335797641
-0.000606729174529188
-0.000656560966706272
-0.000710036057394932
-0.000767382535543463
-0.000828839550275095
-0.000894657593604657
-0.000965098769761048
-0.00104043704901742
-0.00112095850383278
-0.00120696152501513
-0.00129875701552412
-0.00139666855944766
-0.00150103256360644
-0.00161219836916766
-0.00173052833058593
-0.00185639785913085
-0.00199019542821681
-0.00213232253771358
-0.0022831936343924
-0.00244323598565238
-0.00261288950367204
-0.00279260651715026
-0.00298285148783223
-0.00318410066906499
-0.00339684170369544
-0.00362157315870508
-0.00385880399408256
-0.00410905296355669
-0.00437284794495538
-0.00465072519812333
-0.00494322854851165
-0.0052509084947645
-0.00557432123885379
-0.00591402763756326
-0.00627059207439918
-0.00664458125129259
-0.00703656289977959
-0.00744710441167848
-0.00787677138963855
-0.00832612611831534
-0.00879572595731321
-0.00928612165745478
-0.00979785560235966
-0.0103314599777554
-0.0108874548714036
-0.0114663463069787
-0.0120686242157211
-0.0126947603501597
-0.013345206144684
-0.0140203905282391
-0.0147207176948886
-0.0154465648384866
-0.0161982798581647
-0.016976179041808
-0.0177805447351529
-0.018611623004562
-0.0194696213019635
-0.0203547061408294
-0.0212670007924349
-0.0222065830119917
-0.023173482804539
-0.0241676802407644
-0.025189103333152
-0.026237625983046
-0.0273130660093758
-0.0284151832698717
-0.0295436778856655
-0.0306981885801633
-0.0318782911430128
-0.0330834970298957
-0.034313252108674
-0.0355669355622193
-0.0368438589579436
-0.0381432654937034
-0.0394643294293477
-0.0408061557126827
-0.0421677798081154
-0.0435481677356283
-0.0449462163270929
-0.0463607537062065
-0.0477905399975962
-0.04923426826978
-0.0506905657158417
-0.0521579950747418
-0.053635056295232
-0.0551201884433603
-0.0566117718534974
-0.0581081305217804
-0.059607534739775
-0.0611082039650496
-0.062608309924258
-0.0641059799431716
-0.06559930049701
-0.0670863209732756
-0.0685650576381929
-0.0700334977967754
-0.0714896041354456
-0.0729313192351255
-0.074356570241697
-0.0757632736797761
-0.0771493403948492
-0.0785126806079434
-0.0798512090662383
-0.0811628502722854
-0.0824455437738535
-0.0836972494958556
-0.0849159530952966
-0.0860996713197993
-0.0872464573499342
-0.0883544061053549
-0.0894216594946233
-0.0904464115885564
-0.0914269136970116
-0.092361479329186
-0.0932484890177669
-0.0940863949876511
-0.0948737256503947
-0.095609089906136
-0.0962911812353804
-0.0969187815637855
-0.0974907648839317
-0.0980061006189713
-0.0984638567140671
-0.0988632024426015
-0.0992034109152886
-0.0994838612815363
-0.0997040406136697
-0.0998635454659546
-0.0999620831017202
-0.0999994723832809
-0.0999756443207886
-0.0998906422775915
-0.0997446218311429
-0.0995378502899654
-0.0992707058686416
-0.0989436765242497
-0.0985573584590975
-0.0981124542960084
-0.0976097709337783
-0.0970502170917546
-0.0964348005537483
-0.0957646251227229
-0.0950408872988429
-0.0942648726945543
-0.0934379522013766
-0.092561577924002
-0.0916372788981563
-0.0906666566094078
-0.0896513803307774
-0.0885931822975676
-0.0874938527382754
-0.0863552347808391
-0.0851792192537078
-0.0839677394013933
-0.0827227655342213
-0.0814462996319394
-0.0801403699207194
-0.0788070254428245
-0.0774483306378864
-0.076066359954306
-0.0746631925087574
-0.0732409068111916
-0.0718015755720265
-0.0703472606074577
-0.0688800078579935
-0.0674018425343988
-0.0659147644043017
-0.0644207432316754
-0.062921714380361
-0.0614195745916959
-0.0599161779451589
-0.0584133320098049
-0.0569127941930504
-0.0554162682921818
-0.0539254012527534
-0.0524417801368112
-0.0509669293027028
-0.0495023077970093
-0.0480493069579733
-0.0466092482286417
-0.0451833811767986
-0.0437728817176996
-0.0423788505345368
-0.0410023116905685
-0.0396442114258867
-0.03830541713087
-0.0369867164875425
-0.0356888167692402
-0.0344123442882676
-0.0331578439805658
-0.0319257791157984
-0.0307165311207602
-0.0295303995035348
-0.0283676018654586
-0.0272282739876419
-0.0261124699785534
-0.0250201624690428
-0.0239512428410735
-0.0229055214764502
-0.0218827280118998
-0.0208825115870035
-0.0199044410717251
-0.0189480052605626
-0.0180126130207354
-0.0170975933822721
-0.0162021955583689
-0.0153255888850023
-0.0144668626694201
-0.0136250259378725
-0.0127990070737397
-0.0119876533380592
-0.0111897302653935
-0.0104039209289426
-0.00962882506985143
-0.0088629580867571
-0.00810474988276713
-0.00735254356825392
-0.00660459401911084
-0.00585906629139502
-0.005114033894627
-0.00436747692739372
-0.00361728008030725
-0.00286123051283237
-0.00209701561195872
-0.00132222064220348
-0.000534326297954926
0.000269293829301103
0.00109137585476091
0.00193476825943336
0.00280243458739504
0.00369745616238599
0.00462303480342527
0.00558249551757832
0.00657928914651965
0.00761699494205059
0.00869932304429715
0.00983011683493683
0.0110133551364536
0.0122531542271746
0.0135537696406399
0.0149195977167505
0.0163551768711426
0.0178651885483022
0.0194544578231706
0.021127953615311
0.0228907884791726
0.0247482179336333
0.0267056392937414
0.0287685899675597
0.0309427451811255
0.0332339150948547
0.0356480412752637
0.0381911924865723
0.0408695597677417
0.0436894507616572
0.0466572832645818
0.0497795779656946
0.0530629503483839
0.0565141017271862
0.060139809396652
0.063946915871102
0.0679423171972285
0.072132950324633
0.0765257795229366
0.0811277818377871
0.0859459315820661
0.0909871838628766
0.0962584571492675
0.101766614890428
0.107518446198938
0.11352064561875
0.119779792002937
0.126302326531545
0.133094529905619
0.140162498759063
0.147512121335826
0.155149052485801
0.16307868803861
0.171306138620459
0.179836202985053
0.188673340935349
0.19782164591875
0.207284817383726
0.217066132991449
0.227168420781113
0.237594031392545
0.248344810454508
0.259422071251214
0.270826567783727
0.282558468346397
0.294617329741557
0.30700207225851
0.319710955544676
0.332741555498636
0.34609074231559
0.359754659816173
0.373728706189421
0.388007516279519
0.40258494554457
0.417454055813188
0.432607102961665
0.448035526630862
0.463729942097176
0.479680134407008
0.495875054878004
0.512302820063641
0.528950713270512
0.545805188709217
0.562851878351311
0.580075601555143
0.597460377513349
0.61498944056433
0.63264525839853
0.650409553178988
0.668263325583329
0.686186881761864
0.704159863193801
0.722161279410149
0.740169543538901
0.758162510614453
0.776117518579703
0.794011431895984
0.811820687662188
0.829521344131582
0.847089131501565
0.864499504838954
0.881727698991254
0.898748785322235
0.915537730099179
0.932069454348321
0.948318894985061
0.96426106701651
0.979871126605246
0.995124434776008
1.00999662154035
1.02446365020877
1.03850188165548
1.05208813829737
1.06519976754669
1.07781470449577
1.08991153359207
1.10146954906337
1.11246881385504
1.1228902168453
1.13271552810901
1.14192745200676
1.15050967788293
1.15844692816513
1.16572500366649
1.17233082590289
1.17825247624865
1.18347923176675
1.18800159756276
1.19181133552586
1.19490148933524
1.19726640562559
1.19890175122163
1.19980452636804
1.19997307389835
1.19940708430343
1.19810759667806
1.19607699554135
1.19331900354467
1.18983867009838
1.18564235596578
1.18073771389033
1.17513366533836
1.1688403734565
1.16186921235832
1.15423273287013
1.14594462488025
1.13701967644979
1.12747372985582
1.11732363474961
1.10658719862371
1.09528313479149
1.08343100809152
1.07105117853697
1.05816474313675
1.04479347612053
1.0309597678039
1.01668656233316
1.00199729455062
0.986915826222433
0.97146638187005
0.955673484444644
0.939561891081276
0.923156529165173
0.906482432937852
0.889564680864441
0.872428333976628
0.855098375397769
0.837599651247616
0.819956813114876
0.802194262275121
0.784336095820737
0.766406054858066
0.748427474914524
0.730423238686385
0.712415731244614
0.69442679780323
0.676477704141285
0.658589099755896
0.640780983810578
0.623072673929292
0.605482777873424
0.58802916812571
0.570728959391923
0.553598489018836
0.536653300314288
0.519908128743526
0.50337689096453
0.48707267665399
0.471007743065555
0.455193512251951
0.439640570873632
0.42435867250821
0.409356742366989
0.394642884318199
0.380224390109924
0.366107750680291
0.352298669437681
0.338802077389413
0.325622149994308
0.312762325611582
0.300225325416751
0.288013174654009
0.2761272250938
0.264568178564678
0.253336111429005
0.242430499873492
0.231850245887479
0.22159370380415
0.211658707282991
0.202042596614994
0.192742246236032
0.183754092338011
0.175074160471869
0.166698093041502
0.158621176592671
0.150838368806364
0.14334432511168
0.136133424838873
0.129199796839184
0.122537344503861
0.116139770120753
0.110000598512873
0.104113199909168
0.0984708120037651
0.0930665611656576
0.0878934827665915
0.0829445406004913
0.0782126453731599
0.0736906722463567
0.0693714774253495
0.0652479137839767
0.0613128455259185
0.0575591618852704
0.0539797898737877
0.0505677060860413
0.0473159475774618
0.044217621833687
0.0412659158527581
0.0384541043646884
0.0357755572155021
0.033223745945266
0.0307922495917511
0.0284747597532003
0.0262650849453402
0.0241571542890956
0.0221450205666197
0.0202228626841515
0.0183849875808597
0.0166258316233346
0.0149399615255974
0.0133220748345803
0.0117670000208888
0.0102696962143553
0.00882525262340255
0.00742888767662829
0.00607594792421668
0.00476190673587863
0.00348236283097807
0.00223303867532465
0.00100977877786582
-0.000191452080883423
-0.00137457065828271
-0.00254337706803158
-0.00370155658043862
-0.00485268137893234
-0.00600021224901191
-0.00714750017760994
-0.00829778784266808
-0.00945421097460285
-0.0106197995732081
-0.0117974789654766
-0.0129900706917377
-0.0142002932094453
-0.0154307624059029
-0.0166839919131245
-0.0168029428452417
-0.0180834373846902
-0.0193916071851867
-0.0207296473661135
-0.0220996500706638
-0.0235036037387794
-0.0249433921821223
-0.0264207934674191
-0.0279374786162313
-0.0294950101308231
-0.0310948403574115
-0.0327383096995906
-0.0344266446961717
-0.036160955979082
-0.0379422361282236
-0.0397713574414473
-0.0416490696388935
-0.0435759975219829
-0.0455526386082872
-0.047579360764296
-0.0496563998588459
-0.0517838574605563
-0.0539616986031002
-0.0561897496425196
-0.058467696230992
-0.060795081431606
-0.0631713039986537
-0.0655956168478
-0.0680671257402199
-0.0705847882043314
-0.0731474127182352
-0.0757536581752535
-0.0784020336541297
-0.0810908985145161
-0.0838184628372336
-0.0865827882276134
-0.0893817889988548
-0.0922132337508631
-0.0950747473584783
-0.0979638133812555
-0.100877776905214
-0.103813847825046
-0.106769104573289
-0.109740498300942
-0.112724857511804
-0.115718893150684
-0.118719204143352
-0.121722283383816
-0.124724524162219
-0.127722227024295
-0.130711607051014
-0.133688801544721
-0.136649878105748
-0.139590843081279
-0.142507650365946
-0.145396210531546
-0.148252400261168
-0.15107207206102
-0.153851064221367
-0.156585210996186
-0.159270352969529
-0.161902347575009
-0.164477079733497
-0.16699047257287
-0.169438498192586
-0.171817188435006
-0.174122645624649
-0.176351053236064
-0.178498686450686
-0.180561922562876
-0.182537251195455
-0.184421284285291
-0.18621076579996
-0.187902581147207
-0.189493766239762
-0.190981516179166
-0.192363193523511
-0.193636336105434
-0.194798664368373
-0.195848088190824
-0.196782713170372
-0.197600846341345
-0.198301001302213
-0.19888190273124
-0.199342490271428
-0.199681921768363
-0.19989957584734
-0.199995053818865
-0.199968180904528
-0.199819006778081
-0.199547805419525
-0.199155074282886
-0.198641532781335
-0.198008120096193
-0.197255992319225
-0.196386518940491
-0.195401278696717
-0.194302054797899
-0.193090829552346
-0.191769778412918
-0.190341263469508
-0.188807826415049
-0.18717218101439
-0.18543720510728
-0.183605932178478
-0.181681542529514
-0.179667354088073
-0.177566812892131
-0.175383483286995
-0.173121037874202
-0.170783247251849
-0.168373969586336
-0.165897140055712
-0.163356760204832
-0.160756887252351
-0.158101623389219
-0.155395105107762
-0.152641492599702
-0.149844959260573
-0.147009681336861
-0.144139827751024
-0.141239550138092
-0.138312973126075
-0.135364184890725
-0.132397228013429
-0.129416090669169
-0.126424698169485
-0.123426904883343
-0.120426486556734
-0.117427133049608
-0.11443244150661
-0.111445909975812
-0.108470931487406
-0.105510788602093
-0.102568648436616
-0.0996475581717632
-0.0967504410458824
-0.0938800928349017
-0.0910391788177221
-0.0882302312238327
-0.0854556471580991
-0.082717686995765
-0.0800184732389692
-0.0773599898244032
-0.0747440818701392
-0.0721724558482435
-0.0696466801683887
-0.0671681861564751
-0.0647382694111518
-0.0623580915201077
-0.0600286821171759
-0.0577509412604951
-0.0555256421113725
-0.0533534338929777
-0.0512348451075912
-0.0491702869908931
-0.0471600571815825
-0.0452043435845907
-0.0433032284062078
-0.0414566923395822
-0.0396646188793447
-0.0379267987444165
-0.0362429343885189
-0.0346126445784083
-0.0330354690204327
-0.0315108730166872
-0.030038252132728
-0.0286169368595929
-0.0272461972536854
-0.0259252475389249
-0.0246532506564816
-0.0234293227483023
-0.022252537561597
-0.0211219307624022
-0.0200365041472973
-0.0189952297433382
-0.0179970537872205
-0.0170409005756588
-0.0161256761799199
-0.0152502720183704
-0.0144135682818358
-0.0136144372074389
-0.0128517461974607
-0.0121243607806004
-0.0114311474138036
-0.0107709761236066
-0.0101427229866563
-0.00954527244976422
-0.00897751949049511
-0.00843837161989111
-0.0079267507295051
-0.00744159478542301
-0.00698185937243649
-0.00654651909195815
-0.00613456881765434
-0.00574502481312515
-0.00537692571625552
-0.00502933339512973
-0.00470133368062395
-0.0043920369809725
-0.00410057878375802
-0.00382612005088162
-0.00356784751215154
-0.00332497386317596
-0.00309673787325933
-0.00288240440899607
-0.00268126437921293
-0.00249263460685281
-0.00231585763330944
-0.00215030146061607
-0.00199535923677308
-0.00185044888935767
-0.00171501271240753
-0.00158851691140546
-0.00147045111101349
-0.00136032783002299
-0.00125768192779116
-0.00116207002623759
-0.00107306991127108
-0.000990279917309729
-0.000913318298351347
-0.000841822588841233
-0.000775448957377655
-0.000713871556089489
-0.000656781868316537
-0.00060388805702465
-0.000554914316191171
-0.000509600227206625
-0.000467700122153795
-0.000428982455646248
-0.000393229186737277
-0.000360235172244285
-0.000329807572676426
-0.000301765271802918
-0.000275938310756527
-0.000252167337432467
-0.000230303071815311
-0.000210205787747708
-0.000191744811543226
-0.000174798037741769
-0.000159251462210303
-0.000144998732702563
-0.000131940716910255
-0.000119985087963813
-0.000109045927273262
-9.90433445385884e-05
-8.99031147045471e-05
-8.1556331585881e-05
-7.39390778460609e-05
-6.69921109750784e-05
-6.06605648792688e-05
-5.48936666686576e-05
-4.96444682040379e-05
-4.48695919471556e-05
-4.05289906423632e-05
-3.65857203466626e-05
-3.30057263171008e-05
-2.97576412594022e-05
-2.68125954395636e-05
-2.41440381604713e-05
-2.17275701081684e-05
-1.95407860771187e-05
-1.75631275902284e-05
-1.57757449374996e-05
-1.41613681666661e-05
-1.27041865698384e-05
-1.13897362219437e-05
-1.02047951393151e-05
-9.13728564010687e-06
-8.17618350210127e-06
-7.31143352777564e-06
-6.53387114116813e-06
-5.83514965590929e-06
-5.20767286876525e-06
-4.64453264802191e-06
-4.13945120096e-06
-3.68672771948056e-06
-3.28118911753135e-06
-2.91814458834767e-06
-2.59334372357868e-06
-2.30293795008857e-06
-2.04344505357876e-06
-1.81171657111993e-06
-1.60490784721314e-06
-1.42045056008287e-06
-1.25602753653177e-06
-1.10954968485543e-06
-9.79134886005001e-07
-8.63088693408999e-07
-7.59886701613997e-07
-6.68158453182359e-07
-5.86672762103838e-07
-5.14324340336196e-07
-4.50121622005614e-07
-3.93175687276065e-07
-3.42690194951478e-07
-2.97952239520608e-07
-2.58324054601772e-07
-2.23235490612019e-07
-1.92177199984995e-07
-1.64694468409745e-07
-1.40381635375833e-07
-1.18877051801498e-07
-9.98585267092771e-08
-8.30392188113497e-08
-6.81639324903211e-08
-5.50057810259769e-08
-4.33631830378253e-08
-3.30571610026238e-08
-2.39289133783409e-08
-1.58376343346882e-08
-8.65855736850786e-09
-2.28120118159361e-09
3.39220186869314e-09
8.44811265854164e-09
1.29629438069317e-08
1.70041845878253e-08
2.06314056559561e-08
2.38971557405864e-08
2.68477613128835e-08
2.95240391832927e-08
3.19619310277544e-08
3.41930679688964e-08
3.6245272543567e-08
3.81430046651476e-08
3.99077575321526e-08
4.15584088382092e-08
4.3111532097671e-08
4.45816724110815e-08
4.59815905511624e-08
4.73224788489674e-08
4.86141519975085e-08
4.98652155632171e-08
5.10832147007778e-08
5.22747653013104e-08
5.34456695649004e-08
5.46010177735862e-08
5.57452778479194e-08
5.68823740969857e-08
5.80157564164658e-08
5.9148461050206e-08
6.02831639062273e-08
6.14222273067878e-08
6.25677409526279e-08
6.37215577927488e-08
6.48853254119003e-08
6.60605134773917e-08
6.72484377240491e-08
6.84502809002692e-08
6.96671110484766e-08
7.08998974492174e-08
7.2149524519001e-08
7.34168039173534e-08
7.47024850878326e-08
7.60072644305944e-08
7.73317932800866e-08
7.8676684840205e-08
8.0042520210547e-08
8.14298536208576e-08
8.28392169762132e-08
8.4271123802685e-08
8.57260726719209e-08
8.72045501732077e-08
8.87070334928444e-08
9.02339926530281e-08
9.178589245577e-08
9.33631941714541e-08
9.49663570065514e-08
9.65958393804868e-08
9.82521000377278e-08
9.9935599017748e-08
1.01646798502504e-07
1.03386163558466e-07
1.05154162787978e-07
1.06951268902707e-07
1.08777959230268e-07
1.10634716163577e-07
1.12522027561189e-07
1.14440387105774e-07
1.16390294626874e-07
1.18372256393245e-07
1.20386785379386e-07
1.22434401510163e-07
1.24515631886936e-07
1.26631010998101e-07
1.28781080916557e-07
1.30966391486255e-07
1.33187500499667e-07
1.35444973867772e-07
1.37739385783932e-07
1.40071318882798e-07
1.42441364395287e-07
1.44850122300456e-07
1.4729820147503e-07
1.49786219841211e-07
1.52314804513301e-07
1.54884591943635e-07
1.57496228068176e-07
1.60150368452165e-07
1.6284767843608e-07
1.6558883328219e-07
1.68374518321908e-07
1.71205429104133e-07
1.74082271544756e-07
1.77005762077462e-07
1.79976627805957e-07
1.82995606657748e-07
1.86063447539537e-07
1.89180910494349e-07
1.92348766860456e-07
1.95567799432157e-07
1.98838802622513e-07
2.02162582628042e-07
2.05539957595462e-07
2.08971757790534e-07
2.12458825769016e-07
2.16002016549815e-07
2.19602197790341e-07
2.23260249964126e-07
2.26977066540726e-07
2.30753554167956e-07
2.34590632856502e-07
2.38489236166909e-07
2.42450311399021e-07
2.46474819783883e-07
2.50563736678126e-07
2.54718051760919e-07
2.58938769233456e-07
2.63226908021056e-07
2.67583501977898e-07
2.72009600094404e-07
2.76506266707347e-07
2.8107458171267e-07
2.85715640781076e-07
2.90430555576426e-07
2.95220453976952e-07
3.00086480299363e-07
3.05029795525833e-07
3.10051577533939e-07
3.15153021329567e-07
3.20335339282821e-07
3.25599761366997e-07
3.30947535400624e-07
3.36379927292613e-07
3.41898221290593e-07
3.47503720232396e-07
3.53197745800825e-07
3.58981638781647e-07
3.64856759324915e-07
3.70824487209641e-07
3.7688622211183e-07
3.83043383875977e-07
3.89297412790007e-07
3.95649769863725e-07
4.02101937110826e-07
4.08655417834472e-07
4.15311736916542e-07
4.22072441110516e-07
4.28939099338097e-07
4.35913302989601e-07
4.42996666228127e-07
4.50190826297613e-07
4.57497443834752e-07
4.64918203184876e-07
4.72454812721802e-07
4.80109005171715e-07
4.87882537941159e-07
4.95777193449108e-07
5.03794779463237e-07
5.11937129440419e-07
5.20206102871454e-07
5.28603585630187e-07
5.37131490326916e-07
5.4579175666628e-07
5.54586351809584e-07
5.63517270741636e-07
5.72586536642204e-07
5.8179620126205e-07
5.91148345303655e-07
6.00645078806693e-07
6.10288541538245e-07
6.20080903387914e-07
6.30024364767779e-07
6.40121157017327e-07
6.50373542813382e-07
6.60783816585081e-07
6.71354304934008e-07
6.82087367059461e-07
6.92985395188979e-07
7.0405081501416e-07
7.152860861318e-07
7.26693702490518e-07
7.38276192842773e-07
7.50036121202464e-07
7.61976087308119e-07
7.7409872709171e-07
7.86406713153259e-07
7.98902755241166e-07
8.11589600738408e-07
8.24470035154666e-07
8.37546882624386e-07
8.50823006410977e-07
8.64301309417022e-07
8.77984734700728e-07
8.91876265998618e-07
9.05978928254531e-07
9.20295788154978e-07
9.34829954671046e-07
9.49584579606735e-07
9.64562858153945e-07
9.79768029454116e-07
9.95203377166613e-07
1.01087223004395e-06
1.02677796251388e-06
1.04292399526845e-06
1.05931379586016e-06
1.07595087930511e-06
1.09283880869349e-06
1.10998119580728e-06
1.12738170174524e-06
1.14504403755548e-06
1.16297196487536e-06
1.18116929657916e-06
1.19963989743329e-06
1.21838768475934e-06
1.23741662910492e-06
1.25673075492239e-06
1.27633414125577e-06
1.2962309224355e-06
1.31642528878157e-06
1.33692148731483e-06
1.35772382247661e-06
1.37883665685696e-06
1.4002644119312e-06
1.42201156880523e-06
1.44408266896957e-06
1.46648231506204e-06
1.48921517163956e-06
1.51228596595875e-06
1.53569948876578e-06
1.55946059509524e-06
1.58357420507838e-06
1.60804530476075e-06
1.63287894692923e-06
1.65808025194867e-06
1.68365440860822e-06
1.70960667497733e-06
1.73594237927182e-06
1.7626669207297e-06
1.78978577049722e-06
1.81730447252504e-06
1.84522864447462e-06
1.87356397863518e-06
1.90231624285101e-06
1.93149128145941e-06
1.96109501623936e-06
1.99113344737099e-06
2.02161265440612e-06
2.05253879724958e-06
2.08391811715196e-06
2.11575693771347e-06
2.14806166589919e-06
2.18083879306592e-06
2.21409489600057e-06
2.24783663797032e-06
2.28207076978458e-06
2.31680413086894e-06
2.35204365035133e-06
2.38779634816021e-06
2.42406933613523e-06
2.46086981915028e-06
2.49820509624912e-06
2.53608256179385e-06
2.57450970662603e-06
2.61349411924088e-06
2.65304348697458e-06
2.69316559720464e-06
2.73386833856392e-06
2.77515970216783e-06
2.81704778285533e-06
2.85954078044363e-06
2.90264700099672e-06
2.94637485810808e-06
2.99073287419742e-06
3.03572968182173e-06
3.08137402500087e-06
3.12767476055749e-06
3.17464085947212e-06
3.22228140825264e-06
3.2706056103191e-06
3.31962278740354e-06
3.36934238096506e-06
3.41977395362058e-06
3.47092719059096e-06
3.52281190116294e-06
3.57543802016707e-06
3.62881560947148e-06
3.68295485949217e-06
3.73786609071933e-06
3.79355975526042e-06
3.85004643839986e-06
3.90733686017535e-06
3.9654418769716e-06
4.02437248313082e-06
4.08413981258073e-06
4.14475514048003e-06
4.20622988488131e-06
4.2685756084122e-06
4.33180401997409e-06
4.39592697645912e-06
4.46095648448564e-06
4.52690470215177e-06
4.5937839408082e-06
4.66160666684926e-06
4.73038550352332e-06
4.80013323276232e-06
4.87086279703044e-06
4.94258730119274e-06
5.0153200144031e-06
5.08907437201235e-06
5.16386397749626e-06
5.23970260440393e-06
5.31660419832668e-06
5.39458287888745e-06
5.47365294175108e-06
5.55382886065566e-06
5.63512528946492e-06
5.71755706424233e-06
5.80113920534647e-06
5.88588691954838e-06
5.97181560217086e-06
6.05894083924977e-06
6.14727840971819e-06
6.23684428761257e-06
6.3276546443021e-06
6.41972585074086e-06
6.51307447974328e-06
6.60771730828275e-06
6.70367131981429e-06
6.80095370662067e-06
6.89958187218261e-06
6.99957343357335e-06
7.10094622387742e-06
7.2037182946345e-06
7.30790791830777e-06
7.41353359077753e-06
7.5206140338602e-06
7.62916819785248e-06
7.73921526410194e-06
7.85077464760309e-06
7.96386599961971e-06
8.07850921033388e-06
8.19472441152122e-06
8.31253197925367e-06
8.43195253662884e-06
8.55300695652688e-06
8.67571636439516e-06
8.80010214106031e-06
8.92618592556901e-06
9.05398961805635e-06
9.18353538264327e-06
9.31484565036264e-06
9.44794312211394e-06
9.58285077164815e-06
9.71959184858133e-06
9.8581898814382e-06
9.99866868072599e-06
1.0141052342038e-05
1.02853652491884e-05
1.04316320773773e-05
1.05798777963871e-05
1.073012767381e-05
1.08824072783065e-05
1.10367424828973e-05
1.11931594682855e-05
1.13516847262121e-05
1.1512345062844e-05
1.16751676021945e-05
1.18401797895773e-05
1.20074093950936e-05
1.21768845171534e-05
1.234863358603e-05
1.25226853674491e-05
1.26990689662128e-05
1.28778138298573e-05
1.30589497523468e-05
1.32425068778022e-05
1.34285157042648e-05
1.36170070874975e-05
1.38080122448205e-05
1.40015627589844e-05
1.41976905820797e-05
1.43964280394836e-05
1.45978078338438e-05
1.48018630491005e-05
1.50086271545456e-05
1.52181340089205e-05
1.54304178645521e-05
1.56455133715287e-05
1.58634555819134e-05
1.60842799539979e-05
1.63080223565964e-05
1.65347190733777e-05
1.67644068072401e-05
1.69971226847255e-05
1.7232904260474e-05
1.74717895217212e-05
1.77138168928358e-05
1.79590252398998e-05
1.82074538753309e-05
1.84591425625469e-05
1.87141315206735e-05
1.89724614292947e-05
1.92341734332475e-05
1.94993091474597e-05
1.97679106618317e-05
2.00400205461641e-05
2.03156818551277e-05
2.05949381332812e-05
2.08778334201331e-05
2.11644122552486e-05
2.14547196834045e-05
2.17488012597886e-05
2.20467030552475e-05
2.2348471661581e-05
2.26541541968828e-05
2.29637983109316e-05
2.32774521906268e-05
2.35951645654768e-05
2.39169847131325e-05
2.42429624649721e-05
2.45731482117352e-05
2.49075929092055e-05
2.52463480839458e-05
2.55894658390816e-05
2.59369988601374e-05
2.62890004209228e-05
2.66455243894708e-05
2.70066252340292e-05
2.73723580291025e-05
2.77427784615477e-05
2.81179428367237e-05
2.84979080846916e-05
2.88827317664732e-05
2.92724720803595e-05
2.96671878682757e-05
3.00669386222017e-05
3.04717844906454e-05
3.08817862851757e-05
3.12970054870076e-05
3.17175042536462e-05
3.21433454255863e-05
3.25745925330693e-05
3.30113098028988e-05
3.34535621653128e-05
3.39014152609148e-05
3.43549354476634e-05
3.48141898079208e-05
3.52792461555621e-05
3.57501730431425e-05
3.6227039769126e-05
3.67099163851743e-05
3.71988737034966e-05
3.76939833042618e-05
3.8195317543071e-05
3.87029495584931e-05
3.92169532796627e-05
3.97374034339417e-05
4.02643755546422e-05
4.07979459888164e-05
4.13381919051076e-05
4.18851913016675e-05
4.24390230141381e-05
4.29997667236977e-05
4.35675029651759e-05
4.41423131352309e-05
4.47242795005959e-05
4.53134852063916e-05
4.59100142845051e-05
4.65139516620397e-05
4.71253831698287e-05
4.77443955510216e-05
4.83710764697365e-05
4.90055145197825e-05
4.96477992334536e-05
5.02980210903912e-05
5.09562715265172e-05
5.16226429430388e-05
5.2297228715524e-05
5.29801232030501e-05
5.36714217574235e-05
5.43712207324725e-05
5.50796174934129e-05
5.57967104262871e-05
5.65225989474784e-05
5.72573835132974e-05
5.80011656296453e-05
5.8754047861751e-05
5.95161338439826e-05
6.02875282897398e-05
6.10683370014164e-05
6.1858666880444e-05
6.2658625937411e-05
6.3468323302259e-05
6.42878692345593e-05
6.51173751338669e-05
6.59569535501513e-05
6.68067181943099e-05
6.76667839487579e-05
6.85372668781024e-05
6.94182842398935e-05
7.03099544954569e-05
7.12123973208111e-05
7.21257336176596e-05
7.30500855244744e-05
7.39855764276544e-05
7.4932330972771e-05
7.58904750758962e-05
7.68601359350125e-05
7.78414420415119e-05
7.88345231917751e-05
7.98395104988376e-05
8.08565364041418e-05
8.18857346893728e-05
8.29272404883849e-05
8.39811902992106e-05
8.50477219961583e-05
8.61269748419992e-05
8.7219089500238e-05
8.83242080474776e-05
8.94424739858695e-05
9.0574032255652e-05
9.1719029247782e-05
9.2877612816651e-05
9.40499322929004e-05
9.52361384963189e-05
9.64363837488358e-05
9.76508218876059e-05
9.88796082781817e-05
0.000100122899827787
0.000101380854998676
0.000102653633821586
0.00010394139790929
0.000105244310470234
0.000106562536322277
0.000107896241906523
0.000109245595301245
0.000110610766235912
0.000111991926105301
0.000113389247983717
0.000114802906639306
0.000116233078548456
0.000117679941910313
0.000119143676661377
0.000120624464490211
0.000122122488852237
0.000123637934984641
0.000125170989921371
0.000126721842508231
0.000128290683418092
0.00012987770516618
0.000131483102125488
0.00013310707054227
0.000134749808551647
0.000136411516193316
0.000138092395427355
0.000139792650150135
0.000141512486210334
0.000143252111425049
0.000145011735596028
0.000146791570525985
0.00014859183003503
0.000150412729977211
0.000152254488257141
0.000154117324846753
0.000156001461802144
0.000157907123280531
0.000159834535557318
0.000161783927043259
0.000163755528301737
0.000165749572066147
0.000167766293257387
0.000169805929001458
0.000171868718647162
0.000173954903783929
0.000176064728259737
0.000178198438199141
0.000180356282021419
0.000182538510458822
0.000184745376574937
0.00018697713578316
0.000189234045865275
0.000191516366990152
0.000193824361732541
0.000196158295092001
0.000198518434511915
0.000200905049898634
0.000203318413640726
0.000205758800628335
0.00020822648827266
0.00021072175652554
0.000213244887899157
0.000215796167485843
0.000218375882978014
0.0002209843246882
0.000223621785569209
0.00022628856123439
0.000228984949978011
0.00023171125279576
0.000234467773405351
0.000237254818267251
0.000240072696605518
0.000242921720428759
0.000245802204551194
0.00024871446661384
0.000251658827105819
0.000254635609385768
0.000257645139703367
0.000260687747220994
0.000263763764035478
0.000266873525199988
0.000270017368746021
0.000273195635705515
0.00027640867013308
0.000279656819128331
0.000282940432858363
0.000286259864580317
0.000289615470664079
0.000293007610615088
0.000296436647097262
0.000299902945956043
0.000303406876241559
0.000306948810231899
0.000310529123456509
0.000314148194719698
0.000317806406124274
0.000321504143095284
0.000325241794403877
0.000329019752191282
0.000332838411992899
0.000336698172762523
0.000340599436896664
0.000344542610258994
0.000348528102204911
0.000352556325606214
0.000356627696875906
0.000360742635993099
0.00036490156652805
0.000369104915667299
0.000373353114238924
0.000377646596737936
0.000381985801351757
0.000386371169985832
0.000390803148289358
0.000395282185681111
0.000399808735375415
0.000404383254408208
0.000409006203663221
0.000413678047898284
0.000418399255771733
0.000423170299868949
0.000427991656728994
0.000432863806871367
0.000437787234822878
0.000442762429144619
0.000447789882459084
0.000452870091477358
0.000458003557026445
0.000463190784076709
0.000468432281769402
0.000473728563444343
0.000479080146667674
0.000484487553259747
0.000489951309323109
0.000495471945270596
0.000501049995853564
0.000506686000190189
0.000512380501793906
0.00051813404860195
0.000523947193003981
0.000529820491870866
0.000535754506583523
0.00054174980306189
0.000547806951794006
0.000553926527865176
0.000560109110987279
0.000566355285528139
0.00057266564054103
0.000579040769794272
0.000585481271800925
0.00059198774984861
0.000598560812029401
0.000605201071269841
0.000611909145361052
0.00061868565698893
0.000625531233764476
0.000632446508254194
0.000639432118010594
0.000646488705602804
0.000653616918647259
1.48803652853741e-07
1.50932701461758e-07
1.53091156740922e-07
1.55279409536763e-07
1.57497855631103e-07
1.59746895806099e-07
1.62026935908405e-07
1.64338386913562e-07
1.66681664990676e-07
1.69057191567433e-07
1.71465393395547e-07
1.73906702616635e-07
1.76381556828605e-07
1.78890399152575e-07
1.81433678300364e-07
1.84011848642587e-07
1.86625370277383e-07
1.8927470909979e-07
1.91960336871815e-07
1.94682731293181e-07
1.97442376072826e-07
2.00239761001112e-07
2.03075382022806e-07
2.05949741310827e-07
2.08863347340773e-07
2.11816714966263e-07
2.14810365495079e-07
2.17844826766137e-07
2.20920633227304e-07
2.24038326014048e-07
2.27198453028979e-07
2.30401569022233e-07
2.33648235672758e-07
2.36939021670491e-07
2.40274502799445e-07
2.43655262021697e-07
2.47081889562332e-07
2.50554982995297e-07
2.54075147330218e-07
2.57642995100175e-07
2.61259146450431e-07
2.64924229228176e-07
2.68638879073218e-07
2.72403739509705e-07
2.76219462038847e-07
2.80086706232654e-07
2.84006139828727e-07
2.87978438826068e-07
2.92004287581957e-07
2.96084378909897e-07
3.00219414178621e-07
3.04410103412197e-07
3.08657165391232e-07
3.12961327755182e-07
3.17323327105775e-07
3.21743909111574e-07
3.26223828613689e-07
3.30763849732629e-07
3.35364745976333e-07
3.40027300349376e-07
3.44752305463354e-07
3.49540563648494e-07
3.54392887066461e-07
3.59310097824394e-07
3.64293028090186e-07
3.69342520209004e-07
3.74459426821095e-07
3.79644610980846e-07
3.84898946277139e-07
3.9022331695502e-07
3.9561861803866e-07
4.0108575545567e-07
4.06625646162742e-07
4.12239218272642e-07
4.17927411182587e-07
4.23691175703973e-07
4.29531474193548e-07
4.35449280685939e-07
4.41445581027641e-07
4.47521373012433e-07
4.53677666518219e-07
4.59915483645388e-07
4.66235858856605e-07
4.7263983911812e-07
4.79128484042583e-07
4.85702866033369e-07
4.92364070430473e-07
4.9911319565793e-07
5.05951353372814e-07
5.12879668615826e-07
5.19899279963464e-07
5.27011339681843e-07
5.34217013882114e-07
5.41517482677541e-07
5.48913940342251e-07
5.56407595471629e-07
5.63999671144467e-07
5.71691405086777e-07
5.7948404983734e-07
5.87378872915021e-07
5.95377156987814e-07
6.03480200043708e-07
6.11689315563311e-07
6.20005832694305e-07
6.28431096427737e-07
6.36966467776127e-07
6.45613323953498e-07
6.54373058557244e-07
6.63247081751907e-07
6.72236820454898e-07
6.81343718524118e-07
6.90569236947581e-07
6.99914854034982e-07
7.09382065611265e-07
7.18972385212217e-07
7.28687344282061e-07
7.38528492373158e-07
7.4849739734773e-07
7.5859564558169e-07
7.68824842170598e-07
7.79186611137708e-07
7.89682595644225e-07
8.00314458201678e-07
8.11083880886511e-07
8.21992565556893e-07
8.33042234071722e-07
8.44234628511946e-07
8.55571511404098e-07
8.67054665946161e-07
8.7868589623575e-07
8.90467027500602e-07
9.02399906331479e-07
9.1448640091741e-07
9.26728401283359e-07
9.3912781953032e-07
9.51686590077832e-07
9.64406669909037e-07
9.77290038818155e-07
9.90338699660531e-07
1.0035546786052e-06
1.01694002539001e-06
1.03049681357936e-06
1.04422714082458e-06
1.05813312912682e-06
1.07221692510276e-06
1.08648070025289e-06
1.10092665123259e-06
1.11555700012585e-06
1.13037399472183e-06
1.14537990879418e-06
1.16057704238311e-06
1.17596772208043e-06
1.19155430131734e-06
1.20733916065512e-06
1.22332470807881e-06
1.23951337929371e-06
1.25590763802498e-06
1.27250997632014e-06
1.28932291485461e-06
1.30634900324037e-06
1.32359082033753e-06
1.34105097456922e-06
1.35873210423945e-06
1.37663687785416e-06
1.39476799444556e-06
1.41312818389951e-06
1.43172020728632e-06
1.4505468571947e-06
1.4696109580691e-06
1.48891536655031e-06
1.50846297181949e-06
1.52825669594551e-06
1.54829949423582e-06
1.56859435559071e-06
1.58914430286102e-06
1.60995239320947e-06
1.63102171847536e-06
1.65235540554312e-06
1.67395661671415e-06
1.69582855008259e-06
1.71797443991453e-06
1.74039755703104e-06
1.76310120919501e-06
1.78608874150156e-06
1.80936353677243e-06
1.83292901595414e-06
1.85678863851995e-06
1.88094590287591e-06
1.90540434677064e-06
1.93016754770921e-06
1.95523912337099e-06
1.98062273203148e-06
2.00632207298837e-06
2.03234088699159e-06
2.05868295667746e-06
2.08535210700718e-06
2.1123522057094e-06
2.13968716372713e-06
2.16736093566888e-06
2.19537752026419e-06
2.22374096082345e-06
2.25245534570217e-06
2.28152480876971e-06
2.31095352988245e-06
2.34074573536147e-06
2.37090569847483e-06
2.40143773992432e-06
2.4323462283371e-06
2.46363558076169e-06
2.49531026316893e-06
2.52737479095754e-06
2.55983372946448e-06
2.59269169448029e-06
2.62595335276909e-06
2.65962342259364e-06
2.6937066742453e-06
2.72820793057896e-06
2.76313206755312e-06
2.79848401477489e-06
2.83426875605022e-06
2.87049132993932e-06
2.90715683031708e-06
2.94427040693906e-06
2.98183726601256e-06
3.01986267077304e-06
3.05835194206598e-06
3.09731045893412e-06
3.13674365921025e-06
3.17665704011545e-06
3.21705615886288e-06
3.25794663326726e-06
3.29933414235984e-06
3.3412244270093e-06
3.38362329054823e-06
3.42653659940544e-06
3.46997028374416e-06
3.51393033810598e-06
3.558422822061e-06
3.6034538608637e-06
3.64902964611497e-06
3.69515643643025e-06
3.74184055811359e-06
3.78908840583826e-06
3.83690644333327e-06
3.88530120407628e-06
3.93427929199294e-06
3.98384738216231e-06
4.03401222152922e-06
4.08478062962256e-06
4.13615949928055e-06
4.18815579738231e-06
4.24077656558614e-06
4.2940289210747e-06
4.34792005730662e-06
4.40245724477512e-06
4.45764783177348e-06
4.51349924516717e-06
4.57001899117342e-06
4.62721465614735e-06
4.68509390737541e-06
4.74366449387591e-06
4.80293424720665e-06
4.86291108227996e-06
4.9236029981849e-06
4.9850180790169e-06
5.04716449471472e-06
5.11005050190489e-06
5.17368444475388e-06
5.23807475582762e-06
5.30322995695871e-06
5.36915866012147e-06
5.43586956831452e-06
5.50337147645151e-06
5.57167327225941e-06
5.64078393718497e-06
5.71071254730909e-06
5.78146827426921e-06
5.85306038618998e-06
5.92549824862203e-06
5.998791325489e-06
6.07294918004288e-06
6.14798147582767e-06
6.22389797765174e-06
6.30070855256836e-06
6.37842317086503e-06
6.45705190706142e-06
6.53660494091578e-06
6.6170925584406e-06
6.69852515292659e-06
6.78091322597595e-06
6.8642673885443e-06
6.9485983619918e-06
7.03391697914356e-06
7.1202341853588e-06
7.20756103960959e-06
7.2959087155687e-06
7.38528850270707e-06
7.47571180740024e-06
7.56719015404497e-06
7.65973518618492e-06
7.75335866764613e-06
7.84807248368241e-06
7.94388864213001e-06
8.04081927457302e-06
8.1388766375179e-06
8.23807311357836e-06
8.33842121267048e-06
8.43993357321749e-06
8.54262296336547e-06
8.64650228220885e-06
8.75158456102639e-06
8.85788296452787e-06
8.96541079211071e-06
9.07418147912817e-06
9.18420859816725e-06
9.29550586033799e-06
9.40808711657335e-06
9.5219663589399e-06
9.63715772195992e-06
9.75367548394421e-06
9.87153406833611e-06
9.99074804506692e-06
1.01113321319222e-05
1.02333011959201e-05
1.0356670254701e-05
1.04814544779278e-05
1.06076691886994e-05
1.07353298649746e-05
1.08644521410082e-05
1.09950518087994e-05
1.11271448195517e-05
1.12607472851447e-05
1.13958754796184e-05
1.15325458406699e-05
1.16707749711618e-05
1.18105796406429e-05
1.19519767868829e-05
1.2094983517417e-05
1.22396171111057e-05
1.2385895019706e-05
1.25338348694555e-05
1.26834544626697e-05
1.28347717793521e-05
1.29878049788173e-05
1.31425724013279e-05
1.32990925697435e-05
1.34573841911842e-05
1.36174661587067e-05
1.37793575529945e-05
1.39430776440612e-05
1.4108645892968e-05
1.42760819535548e-05
1.44454056741849e-05
1.4616637099504e-05
1.47897964722136e-05
1.49649042348577e-05
1.51419810316246e-05
1.53210477101621e-05
1.55021253234087e-05
1.56852351314377e-05
1.58703986033166e-05
1.60576374189821e-05
1.62469734711276e-05
1.64384288671088e-05
1.66320259308617e-05
1.68277872048366e-05
1.70257354519481e-05
1.7225893657539e-05
1.74282850313608e-05
1.76329330095692e-05
1.7839861256735e-05
1.80490936678717e-05
1.82606543704771e-05
1.84745677265929e-05
1.8690858334879e-05
1.89095510327043e-05
1.91306708982539e-05
1.93542432526517e-05
1.95802936621012e-05
1.9808847940041e-05
2.00399321493182e-05
2.02735726043778e-05
2.05097958734692e-05
2.07486287808696e-05
2.09900984091249e-05
2.12342321013071e-05
2.14810574632893e-05
2.17306023660374e-05
2.19828949479211e-05
2.22379636170405e-05
2.24958370535709e-05
2.27565442121267e-05
2.30201143241409e-05
2.3286576900265e-05
2.35559617327853e-05
2.38282988980582e-05
2.41036187589642e-05
2.43819519673786e-05
2.46633294666637e-05
2.49477824941768e-05
2.52353425837988e-05
2.55260415684812e-05
2.5819911582811e-05
2.61169850655974e-05
2.6417294762475e-05
2.67208737285277e-05
2.70277553309321e-05
2.73379732516194e-05
2.76515614899591e-05
2.79685543654603e-05
2.82889865204941e-05
2.86128929230358e-05
2.89403088694271e-05
2.92712699871592e-05
2.96058122376752e-05
2.99439719191944e-05
3.02857856695557e-05
3.06312904690825e-05
3.09805236434694e-05
3.1333522866688e-05
3.16903261639152e-05
3.20509719144822e-05
3.24154988548445e-05
3.27839460815743e-05
3.31563530543739e-05
3.35327595991104e-05
3.39132059108734e-05
3.42977325570525e-05
3.46863804804398e-05
3.50791910023523e-05
3.54762058257772e-05
3.58774670385402e-05
3.62830171164955e-05
3.66928989267388e-05
3.71071557308439e-05
3.75258311881204e-05
3.79489693588967e-05
3.8376614707824e-05
3.88088121072048e-05
3.92456068403452e-05
3.96870446049291e-05
4.01331715164181e-05
4.05840341114738e-05
4.10396793514038e-05
4.1500154625633e-05
4.19655077551986e-05
4.24357869962684e-05
4.29110410436848e-05
4.33913190345327e-05
4.3876670551732e-05
4.43671456276559e-05
4.48627947477723e-05
4.53636688543123e-05
4.58698193499612e-05
4.63812981015787e-05
4.68981574439408e-05
4.74204501835092e-05
4.7948229602226e-05
4.84815494613337e-05
4.90204640052227e-05
4.95650279653029e-05
5.01152965639025e-05
5.0671325518194e-05
5.1233171044144e-05
5.18008898604929e-05
5.23745391927594e-05
5.29541767772719e-05
5.35398608652275e-05
5.4131650226777e-05
5.47296041551394e-05
5.53337824707415e-05
5.59442455253858e-05
5.6561054206447e-05
5.71842699410931e-05
5.78139547005398e-05
5.84501710043279e-05
5.9092981924631e-05
5.97424510905921e-05
6.0398642692686e-05
6.10616214871144e-05
6.17314528002259e-05
6.24082025329666e-05
6.30919371653599e-05
6.3782723761013e-05
6.44806299716571e-05
6.51857240417126e-05
6.58980748128857e-05
6.66177517287952e-05
6.73448248396264e-05
6.80793648068192e-05
6.88214429077817e-05
6.95711310406372e-05
7.03285017290001e-05
7.10936281267804e-05
7.1866584023024e-05
7.26474438467784e-05
7.34362826719909e-05
7.42331762224394e-05
7.50382008766906e-05
7.5851433673094e-05
7.66729523148038e-05
7.75028351748332e-05
7.83411613011412e-05
7.91880104217478e-05
8.00434629498874e-05
8.09075999891882e-05
8.17805033388851e-05
8.26622554990682e-05
8.35529396759574e-05
8.44526397872169e-05
8.53614404672963e-05
8.62794270728074e-05
8.72066856879342e-05
8.81433031298721e-05
8.90893669543068e-05
9.00449654609206e-05
9.10101876989345e-05
9.19851234726847e-05
9.29698633472294e-05
9.3964498653995e-05
9.49691214964502e-05
9.59838247558179e-05
9.70087020968212e-05
9.80438479734596e-05
9.90893576348268e-05
0.000100145327130956
0.000101211853318706
0.000102289033867674
0.000103376967266152
0.000104475752827117
0.000105585490694247
0.000106706281847985
0.000107838228111633
0.000108981432157474
0.000110135997512946
0.000111302028566838
0.000112479630575528
0.000113668909669255
0.000114869972858424
0.000116082928039963
0.000117307884003689
0.000118544950438738
0.000119794237940016
0.000121055858014686
0.000122329923088703
0.000123616546513376
0.000124915842571972
0.000126227926486354
0.000127552914423656
0.000128890923503004
0.000130242071802263
0.000131606478364828
0.000132984263206451
0.000134375547322107
0.000135780452692897
0.000137199102292993
0.000138631620096612
0.00014007813108504
0.000141538761253681
0.000143013637619163
0.000144502888226464
0.000146006642156088
0.000147525029531273
0.000149058181525249
0.000150606230368519
0.000152169309356194
0.000153747552855362
0.000155341096312491
0.000156950076260879
0.000158574630328141
0.000160214897243735
0.000161871016846529
0.000163543130092409
0.000165231379061923
0.000166935906967964
0.000168656858163507
0.000170394378149367
0.000172148613582009
0.0001739197122814
0.000175707823238888
0.000177513096625141
0.000179335683798113
0.000181175737311054
0.000183033410920565
0.000184908859594685
0.000186802239521029
0.000188713708114964
0.000190643424027825
0.000192591547155168
0.000194558238645075
0.000196543660906492
0.000198547977617611
0.000200571353734295
0.000202613955498545
0.000204675950447003
0.000206757507419505
0.000208858796567674
0.000210979989363548
0.000213121258608262
0.000215282778440758
0.000217464724346553
0.000219667273166536
0.000221890603105815
0.000224134893742603
0.000226400326037146
0.0002286870823407
0.000230995346404541
0.000233325303389026
0.000235677139872689
0.000238051043861386
0.000240447204797483
0.000242865813569081
0.000245307062519291
0.000247771145455547
0.000250258257658957
0.000252768595893716
0.000255302358416544
0.000257859744986169
0.000260440956872863
0.000263046196868011
0.00026567566929373
0.000268329580012529
0.000271008136437011
0.000273711547539622
0.000276440023862433
0.000279193777526986
0.000281973022244161
0.000284777973324099
0.000287608847686169
0.000290465863868968
0.00029334924204038
0.000296259204007664
0.000299195973227596
0.00030215977481665
0.000305150835561216
0.000308169383927881
0.00031121565007373
0.000314289865856709
0.000317392264846023
0.000320523082332571
0.000323682555339446
0.000326870922632454
0.000330088424730695
0.000333335303917178
0.000336611804249473
0.000339918171570432
0.000343254653518925
0.000346621499540633
0.000350018960898891
0.000353447290685549
0.000356906743831914
0.000360397577119701
0.000363920049192049
0.000367474420564569
0.000371060953636437
0.000374679912701542
0.000378331563959658
0.000382016175527675
0.000385734017450865
0.000389485361714188
0.000393270482253657
0.000397089654967727
0.000400943157728739
0.000404831270394404
0.000408754274819319
0.000412712454866552
0.000416706096419241
0.000420735487392253
0.000424800917743882
0.000428902679487579
0.000433041066703748
0.00043721637555156
0.000441428904280818
0.000445678953243876
0.000449966824907571
0.000454292823865237
0.000458657256848725
0.000463060432740482
0.000467502662585671
0.000471984259604326
0.00047650553920356
0.000481066818989801
0.00048566841878108
0.000490310660619353
0.000494993868782863
0.000499718369798556
0.000504484492454521
0.000509292567812484
0.000514142929220334
0.000519035912324682
0.00052397185508349
0.000528951097778708
0.000533973983028966
0.000539040855802304
0.000544152063428942
0.000549307955614082
0.000554508884450767
0.00055975520443276
0.000565047272467476
0.000570385447888946
0.000575770092470807
0.000581201570439371
0.000586680248486685
0.000592206495783661
0.000597780683993227
0.00060340318728352
0.000609074382341129
0.000614794648384357
0.000620564367176529
0.000626383923039342
0.000632253702866231
0.000638174096135808
0.000644145494925302
0.000650168293924054
0.000656242890447046
0.000662369684448449
0.000668549078535243
0.000674781477980834
0.000681067290738728
0.000687406927456236
0.000693800801488194
0.000700249328910765
0.000706752928535222
0.000713312021921795
0.000719927033393547
0.000726598390050267
0.000733326521782431
0.000740111861285159
0.000746954844072223
0.000753855908490091
0.000760815495731976
0.000767834049851964
0.000774912017779126
0.000782049849331692
0.000789247997231237
0.000796506917116904
0.000803827067559669
0.000811208910076616
0.000818652909145251
0.000826159532217854
0.000833729249735831
0.000841362535144132
0.000849059864905676
0.000856821718515801
0.000864648578516758
0.0008725409305122
0.000880499263181746
0.000888524068295531
0.000896615840728795
0.000904775078476507
0.000913002282667989
0.000921297957581606
0.000929662610659437
0.000938096752522001
0.000946600896982989
0.000955175561064019
0.000963821265009445
0.000972538532301138
0.000981327889673334
0.000990189867127476
0.000999124997947081
0.00100813381871265
0.00101721686931657
0.00102637469297806
0.00103560783625811
0.00104491684907445
0.00105430228471657
0.0010637646998607
0.00107330465458485
0.00108292271238388
0.00109261944018449
0.0011023954083604
0.00111225119074734
0.00112218736465825
0.00113220451089835
0.00114230321378028
0.00115248406113929
0.00116274764434836
0.00117309455833343
0.00118352540158856
0.00119404077619111
0.00120464128781704
0.00121532754575603
0.00122610016292679
0.00123695975589231
0.00124790694487504
0.00125894235377223
0.0012700666101712
0.00128128034536456
0.00129258419436556
0.00130397879592334
0.00131546479253826
0.00132704283047721
0.00133871355978886
0.00135047763431906
0.00136233571172607
0.00137428845349596
0.00138633652495788
0.00139848059529939
0.00141072133758183
0.00142305942875555
0.00143549554967534
0.0014480303851157
0.00146066462378617
0.00147339895834665
0.00148623408542272
0.00149917070562096
0.00151220952354425
0.00152535124780708
0.00153859659105087
0.00155194626995922
0.00156540100527323
0.00157896152180677
0.00159262854846177
0.00160640281824346
0.00162028506827561
0.00163427603981582
0.00164837647827068
0.00166258713321109
0.00167690875838738
0.00169134211174451
0.00170588795543731
0.0017205470558456
0.00173532018358934
0.00175020811354378
0.00176521162485457
0.00178033150095283
0.00179556852957028
0.00181092350275429
0.00182639721688286
0.00184199047267973
0.00185770407522931
0.00187353883399168
0.00188949556281754
0.00190557507996315
0.00192177820810522
0.00193810577435575
0.00195455861027694
0.00197113755189599
0.0019878434397199
0.0020046771187502
0.00202163943849771
0.00203873125299726
0.00205595342082234
0.00207330680509974
0.00209079227352416
0.00210841069837277
0.00212616295651975
0.00214404992945081
0.00216207250327763
0.00218023156875229
0.00219852802128162
0.00221696276094162
0.00223553669249171
0.00225425072538897
0.00227310577380244
0.0022921027566272
0.00231124259749858
0.0023305262248062
0.00234995457170803
0.00236952857614436
0.00238924918085173
0.0024091173333769
0.00242913398609059
0.00244930009620135
0.00246961662576927
0.00249008454171961
0.00251070481585655
0.00253147842487665
0.00255240635038243
0.00257348957889584
0.00259472910187157
0.00261612591571051
0.00263768102177298
0.00265939542639193
0.00268127014088613
0.00270330618157322
0.00272550456978281
0.00274786633186936
0.00277039249922514
0.00279308410829303
0.00281594220057922
0.00283896782266604
0.00286216202622442
0.00288552586802654
0.00290906040995824
0.00293276671903144
0.00295664586739646
0.00298069893235423
0.0030049269963685
0.0030293311470779
0.00305391247730793
0.00307867208508287
0.00310361107363769
0.00312873055142973
0.00315403163215041
0.00317951543473677
0.00320518308338301
0.00323103570755189
0.00325707444198603
0.00328330042671914
0.00330971480708715
0.00333631873373928
0.00336311336264893
0.00339009985512458
0.00341727937782053
0.00344465310274752
0.00347222220728334
0.00349998787418323
0.00352795129159028
0.00355611365304566
0.0035844761574987
0.00361304000931704
0.0036418064182965
0.0036707765996709
0.00369995177412179
0.003729333167788
0.00375892201227523
0.00378871954466533
0.00381872700752562
0.00384894564891802
0.00387937672240803
0.00391002148707374
0.00394088120751451
0.00397195715385973
0.00400325060177734
0.00403476283248214
0.00406649513274428
0.0040984487948973
0.00413062511684622
0.00416302540207543
0.00419565095965645
0.00422850310425564
0.00426158315614169
0.00429489244119299
0.00432843229090492
0.00436220404239684
0.00439620903841921
0.00443044862736036
0.00446492416325315
0.00449963700578156
0.00453458852028702
0.00456978007777478
0.00460521305491992
0.00464088883407336
0.00467680880326769
0.0047129743562227
0.00474938689235106
0.00478604781676359
0.00482295854027445
0.00486012047940622
0.0048975350563947
0.00493520369919374
0.00497312784147972
0.00501130892265601
0.00504974838785715
0.00508844768795299
0.00512740827955243
0.00516663162500739
0.00520611919241621
0.00524587245562709
0.00528589289424133
0.0053261819936163
0.00536674124486841
0.00540757214487577
0.00544867619628066
0.00549005490749196
0.00553170979268715
0.00557364237181446
0.00561585417059455
0.00565834672052212
0.00570112155886739
0.00574418022867718
0.00578752427877613
0.00583115526376742
0.00587507474403343
0.00591928428573628
0.00596378546081792
0.00600857984700039
0.00605366902778558
0.00609905459245485
0.00614473813606861
0.00619072125946542
0.00623700556926121
0.006283592677848
0.00633048420339258
0.00637768176983496
0.0064251870068865
0.00647300155002801
0.00652112704050751
0.00656956512533776
0.00661831745729371
0.00666738569490946
0.00671677150247539
0.00676647655003472
0.00681650251338001
0.00686685107404947
0.00691752391932281
0.00696852274221726
0.00701984924148298
0.00056731920794997
0.000559441189603247
0.000551664182360795
0.000543987016826926
0.000536408535349457
0.00052892759192614
0.000521543052111585
0.00051425379292458
0.00050705870275584
0.000499956681276185
0.000492946639345158
0.000486027498920074
0.000479198192965502
0.000472457665363185
0.000465804870822432
0.000459238774790887
0.000452758353365808
0.000446362593205763
0.000440050491442773
0.000433821055594918
0.00042767330347938
0.000421606263125951
0.000415618972690985
0.000409710480371815
0.000403879844321615
0.000398126132564753
0.000392448422912544
0.000386845802879518
0.000381317369600127
0.000375862229745917
0.000370479499443161
0.000365168304190963
0.00035992777877982
0.000354757067210649
0.000349655322614286
0.000344621707171467
0.000339655392033227
0.000334755557241818
0.000329921391652079
0.000325152092853263
0.000320446867091352
0.000315804929191825
0.000311225502482902
0.000306707818719263
0.000302251118006225
0.000297854648724414
0.000293517667454861
0.000289239438904613
0.000285019235832793
0.000280856338977135
0.000276750036980979
0.000272699626320754
0.000268704411233903
0.000264763703647305
0.000260876823106143
0.000257043096703264
0.000253261859008966
0.000249532452001294
0.000245854224996784
0.000242226534581668
0.000238648744543553
0.000235120225803559
0.000231640356348925
0.000228208521166074
0.000224824112174136
0.000221486528158955
0.000218195174707518
0.000214949464142874
0.000211748815459506
0.000208592654259152
0.000205480412687089
0.00020241152936887
0.000199385449347518
0.000196401624021175
0.000193459511081191
0.00019055857445069
0.00018769828422355
0.000184878116603865
0.000182097553845838
0.000179356084194119
0.000176653201824597
0.000173988406785627
0.000171361204939707
0.000168771107905585
0.000166217633000817
0.000163700303184762
0.000161218647002001
0.000158772198526201
0.000156360497304419
0.00015398308830182
0.000151639521846844
0.000149329353576789
0.000147052144383828
0.000144807460361448
0.000142594872751314
0.000140413957890564
0.000138264297159502
0.000136145476929738
0.000134057088512724
0.000131998728108719
0.000129969996756158
0.00012797050028144
0.000125999849249124
0.000124057658912532
0.000122143549164756
0.000120257144490088
0.00011839807391582
0.000116565970964474
0.000114760473606421
0.000112981224212895
0.000111227869509405
0.000109500060529545
0.000107797452569182
0.000106119705141053
0.00010446648192973
0.000102837450746993
0.00010123228348756
9.96506560852224e-05
9.80922484693478e-05
9.65567445217648e-05
9.50438320340232e-05
9.35532026650268e-05
9.20845518990393e-05
9.063757900406e-05
8.92119869905655e-05
8.78074825706246e-05
8.6423776117362e-05
8.50605816247986e-05
8.37176166680439e-05
8.23946023638481e-05
8.10912633315087e-05
7.98073276541307e-05
7.85425268402386e-05
7.72965957857373e-05
7.60692727362185e-05
7.48602992496201e-05
7.36694201592135e-05
7.24963835369452e-05
7.13409406571132e-05
7.02028459603777e-05
6.90818570181085e-05
6.79777344970646e-05
6.68902421244039e-05
6.58191466530203e-05
6.4764217827208e-05
6.37252283486536e-05
6.27019538427385e-05
6.16941728251743e-05
6.07016666689483e-05
5.97242195715873e-05
5.87616185227333e-05
5.78136532720321e-05
5.68801162973293e-05
5.59608027731756e-05
5.50555105396354e-05
5.41640400713982e-05
5.32861944471953e-05
5.24217793195054e-05
5.15706028845679e-05
5.0732475852683e-05
4.9907211418809e-05
4.90946252334461e-05
4.82945353738115e-05
4.75067623152991e-05
4.67311289032235e-05
4.5967460324846e-05
4.52155840816834e-05
4.44753299620874e-05
4.37465300141082e-05
4.30290185186267e-05
4.23226319627608e-05
4.16272090135393e-05
4.09425904918461e-05
4.02686193466275e-05
3.96051406293646e-05
3.89520014688058e-05
3.8309051045963e-05
3.76761405693575e-05
3.70531232505292e-05
3.6439854279795e-05
3.58361908022604e-05
3.52419918940792e-05
3.46571185389627e-05
3.40814336049324e-05
3.35148018213177e-05
3.2957089755994e-05
3.24081657928636e-05
3.18679001095686e-05
3.13361646554451e-05
3.08128331297086e-05
3.02977809598718e-05
2.97908852803924e-05
2.92920249115493e-05
2.88010803385443e-05
2.83179336908288e-05
2.7842468721652e-05
2.73745707878325e-05
2.69141268297432e-05
2.64610253515183e-05
2.60151564014724e-05
2.55764115527334e-05
2.51446838840871e-05
2.47198679610302e-05
2.43018598170323e-05
2.38905569350026e-05
2.34858582289602e-05
2.30876640259099e-05
2.26958760479128e-05
2.23103973943607e-05
2.1931132524445e-05
2.15579872398209e-05
2.11908686674657e-05
2.08296852427279e-05
2.0474346692567e-05
2.01247640189809e-05
1.97808494826198e-05
1.94425165865867e-05
1.91096800604174e-05
1.8782255844245e-05
1.84601610731435e-05
1.81433140616485e-05
1.78316342884556e-05
1.75250423812927e-05
1.7223460101966e-05
1.69268103315772e-05
1.66350170559104e-05
1.63480053509893e-05
1.60657013687977e-05
1.57880323231676e-05
1.55149264758311e-05
1.52463131226324e-05
1.49821225799023e-05
1.47222861709904e-05
1.44667362129547e-05
1.42154060034079e-05
1.39682298075169e-05
1.37251428451571e-05
1.34860812782149e-05
1.32509821980433e-05
1.30197836130637e-05
1.2792424436516e-05
1.25688444743532e-05
1.23489844132809e-05
1.21327858089384e-05
1.19201910742219e-05
1.17111434677466e-05
1.1505587082449e-05
1.1303466834323e-05
1.11047284512944e-05
1.09093184622285e-05
1.07171841860707e-05
1.05282737211183e-05
1.03425359344229e-05
1.01599204513213e-05
9.98037764509396e-06
9.80385862674953e-06
9.63031523493519e-06
9.4597000259684e-06
9.29196626399334e-06
9.12706791125693e-06
8.96495961850502e-06
8.80559671549714e-06
8.64893520163827e-06
8.49493173672689e-06
8.34354363181757e-06
8.19472884019724e-06
8.04844594847429e-06
7.9046541677776e-06
7.76331332506682e-06
7.62438385455098e-06
7.48782678921461e-06
7.3536037524504e-06
7.22167694979743e-06
7.09200916078324e-06
6.96456373086914e-06
6.83930456349739e-06
6.71619611223965e-06
6.59520337304404e-06
6.47629187658206e-06
6.3594276806924e-06
6.24457736292139e-06
6.13170801315871e-06
6.02078722636773e-06
5.91178309540893e-06
5.8046642039556e-06
5.69939961950081e-06
5.59595888645497e-06
5.49431201933163e-06
5.39442949602257e-06
5.29628225115947e-06
5.19984166956194e-06
5.10507957977091e-06
5.01196824766622e-06
4.92048037016748e-06
4.83058906901743e-06
4.74226788464666e-06
4.65549077011876e-06
4.57023208515558e-06
4.48646659024008e-06
4.40416944079803e-06
4.32331618145597e-06
4.24388274037541e-06
4.1658454236619e-06
4.08918090984851e-06
4.01386624445257e-06
3.93987883460486e-06
3.86719644375051e-06
3.795797186421e-06
3.72565952307532e-06
3.65676225501116e-06
3.58908451934394e-06
3.52260578405356e-06
3.45730584309773e-06
3.39316481159137e-06
3.33016312105098e-06
3.26828151470362e-06
3.20750104285915e-06
3.14780305834584e-06
3.08916921200729e-06
3.03158144826135e-06
2.97502200071935e-06
2.91947338786521e-06
2.86491840879367e-06
2.81134013900698e-06
2.75872192626923e-06
2.70704738651778e-06
2.6563003998308e-06
2.60646510645081e-06
2.55752590286256e-06
2.50946743792567e-06
2.4622746090607e-06
2.41593255848806e-06
2.37042666951928e-06
2.3257425628999e-06
2.28186609320327e-06
2.23878334527479e-06
2.19648063072575e-06
2.15494448447657e-06
2.11416166134792e-06
2.07411913270041e-06
2.03480408312107e-06
1.99620390715673e-06
1.95830620609343e-06
1.92109878478129e-06
1.88456964850442e-06
1.84870699989505e-06
1.81349923589158e-06
1.77893494473988e-06
1.74500290303705e-06
1.71169207281759e-06
1.67899159868106e-06
1.6468908049608e-06
1.61537919293318e-06
1.58444643806689e-06
1.55408238731171e-06
1.52427705642631e-06
1.49502062734444e-06
1.46630344557928e-06
1.43811601766502e-06
1.41044900863566e-06
1.38329323954025e-06
1.35663968499416e-06
1.33047947076592e-06
1.3048038713992e-06
1.27960430786936e-06
1.25487234527426e-06
1.23059969055874e-06
1.20677819027246e-06
1.18339982836046e-06
1.16045672398626e-06
1.13794112938687e-06
1.11584542775939e-06
1.09416213117868e-06
1.07288387854585e-06
1.05200343356692e-06
1.03151368276152e-06
1.01140763350097e-06
9.9167841207557e-07
9.72319261790459e-07
9.53323541089929e-07
9.34684721709617e-07
9.16396386856236e-07
8.98452229414551e-07
8.80846050181109e-07
8.63571756124459e-07
8.46623358671445e-07
8.2999497201921e-07
8.13680811472702e-07
7.9767519180698e-07
7.81972525654442e-07
7.66567321916279e-07
7.51454184197967e-07
7.36627809268457e-07
7.22082985542706e-07
7.07814591587235e-07
6.93817594648415e-07
6.80087049203123e-07
6.66618095531562e-07
6.53405958311711e-07
6.40445945235395e-07
6.27733445645442e-07
6.15263929193758e-07
6.03032944519962e-07
5.91036117950321e-07
5.79269152216702e-07
5.67727825195231e-07
5.56407988664415e-07
5.45305567082477e-07
5.34416556383472e-07
5.23737022792172e-07
5.13263101657237e-07
5.02990996302527e-07
4.92916976896249e-07
4.830373793377e-07
4.73348604161358e-07
4.63847115458054e-07
4.54529439813002e-07
4.45392165260469e-07
4.36431940254723e-07
4.276454726572e-07
4.19029528739538e-07
4.10580932202275e-07
4.02296563209002e-07
3.94173357435719e-07
3.86208305135199e-07
3.78398450216131e-07
3.70740889336827e-07
3.63232771013266e-07
3.55871294741325e-07
3.48653710132865e-07
3.41577316065626e-07
3.34639459846615e-07
3.27837536388824e-07
3.21168987401092e-07
3.14631300590897e-07
3.08222008879907e-07
3.0193868963209e-07
2.95778963894184e-07
2.89740495648399e-07
2.83820991077065e-07
2.78018197839171e-07
2.72329904358531e-07
2.66753939123435e-07
2.61288169997613e-07
2.55930503542339e-07
2.50678884349506e-07
2.45531294385516e-07
2.40485752345806e-07
2.35540313019889e-07
2.3069306666667e-07
2.25942138399994e-07
2.21285687584173e-07
2.167219072394e-07
2.12249023456873e-07
2.07865294823488e-07
2.03569011855967e-07
1.99358496444253e-07
1.95232101304051e-07
1.91188209438391e-07
1.87225233608002e-07
1.8334161581047e-07
1.79535826767954e-07
1.75806365423379e-07
1.72151758444953e-07
1.68570559738893e-07
1.65061349970226e-07
1.61622736091539e-07
1.58253350879559e-07
1.54951852479462e-07
1.51716923956722e-07
1.48547272856486e-07
1.45441630770269e-07
1.42398752909903e-07
1.39417417688611e-07
1.36496426309093e-07
1.33634602358529e-07
1.30830791410374e-07
1.28083860632838e-07
1.2539269840398e-07
1.22756213933246e-07
1.20173336889424e-07
1.17643017034863e-07
1.15164223865877e-07
1.12735946259238e-07
1.10357192124651e-07
1.08026988063129e-07
1.05744379031163e-07
1.03508428010598e-07
1.01318215684147e-07
9.91728401163951e-08
9.70714164402798e-08
9.50130765489034e-08
9.29969687926225e-08
9.10222576813155e-08
8.90881235917531e-08
8.71937624799866e-08
8.53383855986723e-08
8.35212192192558e-08
8.17415043589436e-08
7.99984965123584e-08
7.82914653878411e-08
7.6619694648297e-08
7.49824816565209e-08
7.33791372249286e-08
7.18089853696227e-08
7.02713630687239e-08
6.87656200248946e-08
6.72911184319903e-08
6.58472327457757e-08
6.44333494586191e-08
6.3048866878128e-08
6.16931949096445e-08
6.03657548425373e-08
5.90659791402341e-08
5.77933112339294e-08
5.65472053199073e-08
5.53271261604218e-08
5.4132548888072e-08
5.29629588136241e-08
5.18178512372027e-08
5.06967312628218e-08
4.95991136161824e-08
4.85245224656863e-08
4.74724912466159e-08
4.64425624884244e-08
4.54342876450846e-08
4.44472269284483e-08
4.34809491445602e-08
4.2535031532888e-08
4.16090596083994e-08
4.07026270064654e-08
3.98153353305196e-08
3.89467940024391e-08
3.80966201155973e-08
3.72644382905452e-08
3.64498805332747e-08
3.5652586096024e-08
3.48722013405756e-08
3.41083796040175e-08
3.33607810669055e-08
3.26290726238074e-08
3.19129277561744e-08
3.12120264075069e-08
3.05260548607722e-08
2.98547056180365e-08
2.91976772822757e-08
2.85546744413245e-08
2.79254075539288e-08
2.73095928378685e-08
2.67069521601053e-08
2.61172129289346e-08
2.55401079880955e-08
2.49753755128122e-08
2.44227589077291e-08
2.38820067067101e-08
2.33528724744683e-08
2.28351147099949e-08
2.23284967517563e-08
2.1832786684628e-08
2.13477572485382e-08
2.08731857487841e-08
2.04088539680019e-08
1.9954548079754e-08
1.95100585637081e-08
1.90751801223808e-08
1.86497115994167e-08
1.82334558993783e-08
1.78262199090185e-08
1.74278144200098e-08
1.70380540531083e-08
1.66567571837188e-08
1.62837458688473e-08
1.59188457754077e-08
1.55618861098636e-08
1.52126995491796e-08
1.48711221730596e-08
1.45369933974497e-08
1.42101559092828e-08
1.38904556024429e-08
1.35777415149285e-08
1.32718657671908e-08
1.29726835016307e-08
1.26800528232292e-08
1.23938347412945e-08
1.21138931123031e-08
1.18400945838179e-08
1.15723085394622e-08
1.13104070449314e-08
1.10542647950239e-08
1.08037590616738e-08
1.05587696429641e-08
1.03191788131076e-08
1.00848712733738e-08
9.85573410394807e-09
9.63165671670341e-09
9.41253080887082e-09
9.19825031759021e-09
8.98871137532712e-09
8.78381226613853e-09
8.5834533827742e-09
8.38753718459514e-09
8.19596815629813e-09
8.00865276742923e-09
7.82549943267226e-09
7.64641847289901e-09
7.47132207696612e-09
7.30012426424598e-09
7.13274084787771e-09
6.96908939872465e-09
6.80908921002765e-09
6.65266126273696e-09
6.49972819151526e-09
